frame_count,time_sec,id,conf,landmarks
0,0.0,,0.0,0
2,0.04,,0.0,0
4,0.08,,0.0,0
6,0.12,,0.0,0
8,0.16,,0.0,0
10,0.2,,0.0,0
12,0.24,,0.0,0
14,0.28,,0.0,0
16,0.32,,0.0,0
18,0.36,,0.0,0
20,0.4,,0.0,0
22,0.44,,0.0,0
24,0.48,,0.0,0
26,0.52,,0.0,0
28,0.56,,0.0,0
30,0.6,,0.0,0
36,0.72,,2.787296608797174e-11,"[[     635.98      145.49]
 [     785.53      217.26]
 [      625.4      189.47]
 [     823.27      214.49]
 [     616.27      239.36]
 [     863.63      215.18]
 [      576.9      309.25]
 [     903.35      223.15]
 [     560.89      241.16]
 [     874.03      257.66]
 [     583.66      180.13]
 [      831.9      290.05]
 [     629.14      144.55]
 [     781.19      304.09]
 [     683.24      135.35]
 [     705.68      135.24]
 [     654.11      166.72]
 [     717.99      188.13]
 [     628.62      164.36]
 [     745.09      195.26]
 [     642.64      156.36]
 [     735.32      179.79]
 [      639.8      172.52]
 [      731.2       201.6]
 [     694.69      148.31]
 [     691.29      168.75]
 [     674.01      168.66]
 [     705.87      174.96]
 [     679.61      150.77]
 [     710.26      156.41]
 [     628.73      195.74]
 [     727.37      227.22]
 [     685.77      188.73]
 [     669.13      183.06]
 [     706.68      189.24]
 [     685.31       206.3]
 [     651.16      192.99]
 [     721.31      207.84]
 [     682.83      218.26]
 [     618.58      219.04]
 [     734.73      224.85]
 [     682.24      221.42]
 [     682.17      227.74]
 [      649.2       234.4]
 [     708.98      237.33]
 [     683.93      214.66]]"
44,0.88,,0.0,0
46,0.92,,0.0,0
48,0.96,,0.0,0
50,1.0,,0.0,0
52,1.04,,0.0,0
54,1.08,,0.0,0
56,1.12,,0.0,0
58,1.16,,0.0,0
62,1.24,,0.0,0
64,1.28,,0.0,0
66,1.32,,0.0,0
68,1.36,,0.0,0
70,1.4,,0.0,0
72,1.44,,0.0,0
74,1.48,,0.0,0
76,1.52,,0.0,0
78,1.56,,0.0,0
80,1.6,,0.0,0
82,1.64,,0.0,0
84,1.68,,0.0,0
86,1.72,,0.0,0
88,1.76,,0.0,0
90,1.8,,0.0,0
92,1.84,,0.0,0
94,1.88,,0.0,0
96,1.92,,0.0,0
98,1.96,,0.0,0
100,2.0,,0.0,0
102,2.04,,0.0,0
106,2.12,,0.0,0
108,2.16,,0.0,0
110,2.2,,0.0,0
112,2.24,,0.0,0
114,2.28,,0.0,0
116,2.32,,0.0,0
118,2.36,,0.0,0
120,2.4,,0.0,0
122,2.44,,0.0,0
124,2.48,,0.0,0
126,2.52,,0.0,0
128,2.56,,0.0,0
130,2.6,,0.0,0
132,2.64,,0.0,0
134,2.68,,0.0,0
136,2.72,,0.0,0
138,2.76,,0.0,0
140,2.8,,4.7502377128694206e-05,"[[     84.769      468.42]
 [      119.8      441.54]
 [     70.169      448.43]
 [     132.74      422.66]
 [     53.879      432.82]
 [     150.97      402.84]
 [     30.682      417.34]
 [     176.91      397.77]
 [     34.487      455.55]
 [     180.83      430.27]
 [     35.301       481.3]
 [     176.93      467.89]
 [     47.276       512.9]
 [     165.79      492.98]
 [     96.984      477.05]
 [        103      467.02]
 [     94.468      505.35]
 [     126.74      499.99]
 [     77.141      507.75]
 [     146.45      492.02]
 [     84.158      500.88]
 [     134.07      488.32]
 [     85.561      512.44]
 [     139.43      502.11]
 [     118.18      501.06]
 [     121.96      522.63]
 [     110.46      525.37]
 [     134.35      523.58]
 [     103.84      506.51]
 [     133.04      502.82]
 [     86.266       528.8]
 [     148.08      521.87]
 [     124.12      536.87]
 [     110.92      539.09]
 [     139.77      535.02]
 [     128.02      548.77]
 [     98.367      547.82]
 [     155.34      541.79]
 [     130.23      555.55]
 [     93.149       562.8]
 [     174.42      543.95]
 [     133.26      569.93]
 [     135.55      576.19]
 [     112.04       572.2]
 [     159.68      565.79]
 [     130.87      564.36]]"
142,2.84,,0.0,0
144,2.88,,0.20990294218063354,"[[     108.56      516.45]
 [     134.28      479.96]
 [      105.9      524.33]
 [     90.876      480.56]
 [     79.415      475.15]
 [     97.977      481.91]
 [     90.948      473.31]
 [      91.28       481.8]
 [     144.57      473.57]
 [     125.53      480.21]
 [     130.73      466.88]
 [     134.82      485.69]
 [     104.82       500.1]
 [     112.97      499.47]
 [      97.58      501.55]
 [     117.04      504.05]
 [     106.17       512.3]
 [     107.32       517.8]
 [     112.41      521.25]
 [     125.82      522.42]
 [     101.22      520.98]
 [      89.86      524.16]
 [     95.663      444.09]
 [     80.869      419.86]
 [     51.917      401.67]
 [     54.192      438.02]
 [      59.41      471.37]
 [     151.86      463.12]
 [     162.86       437.6]
 [     174.79      408.99]
 [     150.37      428.11]
 [     130.39      439.13]
 [     69.256      504.21]
 [     87.231      510.98]
 [     122.32       509.1]
 [        136      496.65]
 [     88.929      476.63]
 [     92.779      478.52]
 [     90.191       476.6]
 [     132.19      472.96]
 [     128.86      478.08]
 [     135.21      475.09]
 [     85.319       503.3]
 [     129.47      499.51]
 [     103.38      508.55]
 [     112.89      508.06]
 [     77.106      518.44]
 [     137.75      513.03]]"
146,2.92,,0.15357887744903564,"[[     118.98      515.76]
 [     141.56      482.71]
 [     117.67      527.56]
 [     100.55      484.94]
 [     88.705       478.7]
 [     108.86       484.6]
 [     101.93       477.5]
 [     100.11      488.61]
 [      153.2      475.73]
 [     131.15      481.66]
 [     139.59      468.88]
 [     141.99      485.48]
 [     116.08      497.06]
 [     121.57      495.86]
 [     109.43      500.26]
 [     125.36      500.09]
 [     118.05      512.67]
 [     118.37      518.45]
 [     124.17      521.73]
 [     136.81      523.82]
 [     108.75      519.48]
 [     96.379      524.66]
 [     105.71      443.29]
 [     91.483      420.84]
 [     60.674       401.1]
 [     63.831      439.47]
 [      71.74      465.55]
 [     143.59      447.36]
 [     158.32      424.35]
 [     183.96      400.33]
 [     170.43      437.16]
 [     160.93      461.95]
 [     80.462      505.16]
 [     95.643      511.21]
 [     131.02      508.74]
 [        145      500.51]
 [     100.83      480.61]
 [      102.9      482.56]
 [      99.15      480.92]
 [     141.66      474.51]
 [     136.32      478.71]
 [     142.76      474.71]
 [     95.445      502.87]
 [      137.8      499.72]
 [     112.03       507.9]
 [     121.03      507.05]
 [     84.608      516.07]
 [     146.94      513.55]]"
148,2.96,,0.0,0
150,3.0,,0.0,0
152,3.04,,0.0179915688931942,"[[     114.48      512.61]
 [     137.89      485.57]
 [     114.58      521.63]
 [     100.06      488.44]
 [     87.992      483.41]
 [     108.59      488.83]
 [     99.771      481.11]
 [     100.12      491.04]
 [     149.69      476.06]
 [      129.4      483.71]
 [     135.13      473.28]
 [     138.97      487.82]
 [     109.12       496.2]
 [     116.73      494.76]
 [     103.91      497.55]
 [     121.42      498.17]
 [     112.26      508.76]
 [     113.35      513.57]
 [      120.1      517.58]
 [     133.74      516.72]
 [     106.26      516.41]
 [      96.04      522.46]
 [     100.74      451.53]
 [     87.189      430.19]
 [     58.639      413.05]
 [     61.886       450.1]
 [     69.921      476.33]
 [     151.53      460.64]
 [     165.43      439.03]
 [     182.47      413.09]
 [     158.97      434.89]
 [     141.41      447.97]
 [     81.289      503.69]
 [      95.68      510.36]
 [     128.01      504.46]
 [     143.81      492.69]
 [     98.191      484.97]
 [     102.16      486.15]
 [     98.822      483.58]
 [     138.02      479.26]
 [     132.83      482.77]
 [     136.86      476.52]
 [     92.601      502.29]
 [     134.59      494.35]
 [     109.89      503.78]
 [     117.21      502.62]
 [     84.303      514.86]
 [      146.4      509.92]]"
156,3.12,,0.06262987107038498,"[[     89.487       525.8]
 [     118.95      494.59]
 [     89.915      531.71]
 [     74.649      491.26]
 [     63.479      484.27]
 [     82.284      492.58]
 [     74.048      483.01]
 [     75.078      493.03]
 [     128.76      487.72]
 [     109.61      490.76]
 [     114.01      480.57]
 [      120.1      499.47]
 [     83.426      513.46]
 [     92.193      512.27]
 [      80.03      515.76]
 [     95.106      515.25]
 [     86.538      525.77]
 [     88.453      528.06]
 [     94.701      529.95]
 [     107.56      527.87]
 [     83.064      530.94]
 [     70.352      535.59]
 [     76.075      457.79]
 [     61.576      432.73]
 [     31.773      413.32]
 [     38.804      451.84]
 [     42.794      486.08]
 [     137.35      464.69]
 [     149.78      441.18]
 [     171.97      407.12]
 [     142.47      438.45]
 [     120.33      455.79]
 [     49.667      521.03]
 [     67.849      525.81]
 [     103.16      520.93]
 [     110.34      505.72]
 [     72.787      486.02]
 [     76.744      489.47]
 [     72.618      488.06]
 [      118.8      488.24]
 [     112.92      492.61]
 [     115.16      485.17]
 [     67.621      517.78]
 [     102.37      509.86]
 [     86.027      519.94]
 [     93.879      519.88]
 [     55.747       531.6]
 [     114.67      515.57]]"
156,3.12,,1.6696472471267043e-07,"[[     834.44       150.3]
 [     942.44      219.39]
 [     808.52      223.96]
 [     964.98      236.87]
 [     800.47      298.67]
 [     994.47      257.41]
 [     777.95      400.15]
 [     1028.9       283.8]
 [     736.71      289.39]
 [     1024.1      305.65]
 [     743.61      198.98]
 [      980.5      332.46]
 [     826.28      142.33]
 [     939.09      307.54]
 [     863.85      133.53]
 [      869.9      140.42]
 [     831.96      172.87]
 [     882.35      197.01]
 [     804.03      166.34]
 [     912.04      202.26]
 [     818.72      159.72]
 [     900.06       186.9]
 [     815.98      178.71]
 [     896.43      210.66]
 [     874.36      165.78]
 [     870.62      188.71]
 [     850.69       187.4]
 [     887.26      194.31]
 [     856.03      165.34]
 [      892.9      175.45]
 [     804.96       210.6]
 [     893.07      237.84]
 [     866.76      208.22]
 [     846.09      203.46]
 [     889.96      211.88]
 [     866.03      230.72]
 [     829.82      210.19]
 [     908.56      227.13]
 [     861.53      246.92]
 [     791.53      244.71]
 [     913.68      256.22]
 [     860.24      252.79]
 [     860.53      258.85]
 [     828.48       260.1]
 [     886.42      267.26]
 [     861.29      247.02]]"
158,3.16,,0.01552808377891779,"[[     77.145      571.58]
 [     112.61      523.38]
 [     76.068      576.05]
 [     54.098      510.68]
 [     43.478      503.75]
 [     67.141      510.61]
 [     54.691      501.59]
 [     54.332      516.66]
 [     128.34      518.84]
 [     100.15       523.2]
 [     111.82      510.24]
 [     113.75      533.51]
 [     71.865      550.12]
 [     84.233      550.91]
 [      67.59      553.69]
 [     92.488      553.61]
 [     77.305         563]
 [     78.079      570.34]
 [     87.149      575.56]
 [     102.16      579.14]
 [     67.706      573.13]
 [     58.109       579.3]
 [     62.873      484.92]
 [     46.933      452.65]
 [      25.17      421.24]
 [     48.607       452.8]
 [      65.32      478.28]
 [     136.15      501.27]
 [     150.27      455.24]
 [     173.48      410.72]
 [     145.72      452.23]
 [     125.92      486.73]
 [     39.425       555.9]
 [     55.913      565.92]
 [      99.03       564.7]
 [     126.35      549.53]
 [     52.659      507.77]
 [     56.767      507.36]
 [     52.698      504.64]
 [     114.13      517.64]
 [     109.15      521.57]
 [     114.91      518.11]
 [     51.646      553.57]
 [      107.7      550.59]
 [     72.107      557.87]
 [     81.563      555.61]
 [     45.369      571.08]
 [     121.82      572.08]]"
162,3.24,,0.0004873175348620862,"[[     52.111      575.75]
 [     94.721      538.92]
 [     50.228       578.2]
 [     51.938      524.46]
 [     39.141       508.9]
 [     63.883      528.09]
 [     57.595      511.42]
 [     50.712      528.69]
 [      112.7      534.96]
 [     82.928      540.39]
 [     97.234      529.09]
 [     92.534      547.74]
 [     49.852      554.35]
 [     64.323      554.45]
 [     46.726       555.1]
 [     70.086      558.18]
 [     52.203      566.59]
 [      53.03      572.89]
 [     56.965       578.8]
 [     71.932      581.21]
 [     42.244      574.39]
 [     29.381      570.95]
 [     71.796      475.08]
 [     60.917      447.53]
 [     37.892      411.37]
 [     39.681      458.72]
 [     37.694      500.57]
 [      105.9      502.59]
 [     126.86      462.48]
 [     156.07      430.04]
 [     126.91      465.23]
 [     103.71      501.74]
 [     20.124      545.73]
 [     31.235      561.66]
 [     73.343       570.1]
 [     92.697      563.53]
 [     50.936      517.81]
 [     57.371      521.64]
 [     55.089      514.66]
 [     97.874      534.89]
 [     92.692      535.62]
 [     98.009      533.49]
 [     32.797      547.95]
 [     80.129      560.99]
 [     46.353      558.48]
 [     60.949      559.13]
 [     19.894      558.76]
 [     80.759      576.91]]"
164,3.28,,0.027849482372403145,"[[      69.89      575.78]
 [      93.36      536.04]
 [     74.282      582.42]
 [     54.195      538.04]
 [     38.917      530.23]
 [     67.169      535.52]
 [     52.324      527.41]
 [     55.755      541.94]
 [     107.88      523.64]
 [     80.071      538.67]
 [     87.779       523.5]
 [     95.144      541.34]
 [     53.012      551.87]
 [     68.393      550.89]
 [      53.75      557.71]
 [     74.024      552.39]
 [     67.285      573.86]
 [     68.348      577.43]
 [     81.581       579.2]
 [     96.342      577.49]
 [     62.672      582.08]
 [     47.432       591.5]
 [     76.239      492.93]
 [     46.039      469.51]
 [     5.1743      458.35]
 [     18.523      507.17]
 [      35.72      556.36]
 [     132.72      538.27]
 [     129.86       491.3]
 [     124.78      433.09]
 [     107.67      469.97]
 [      94.42      497.83]
 [      33.43      575.18]
 [     46.401      577.44]
 [     87.932      566.82]
 [     105.79      551.78]
 [     51.319      532.19]
 [     56.441      534.05]
 [     51.354      533.71]
 [     92.626      529.35]
 [     87.216      532.96]
 [     93.304      527.57]
 [     45.108      565.88]
 [     87.698      551.19]
 [     61.192      562.29]
 [     70.828      559.69]
 [     32.542      586.91]
 [      106.6      565.85]]"
166,3.32,,0.01129294466227293,"[[     69.641      534.72]
 [     91.279      505.02]
 [     67.341      542.35]
 [     53.463      494.21]
 [     45.954      491.04]
 [     61.205      493.99]
 [     54.946      488.73]
 [     53.238      496.77]
 [     102.31      498.14]
 [     80.309      500.95]
 [     87.648      494.87]
 [     91.822      508.47]
 [     69.435      513.39]
 [     78.084      516.35]
 [     62.458      515.87]
 [     80.006      520.18]
 [     71.083      530.86]
 [      68.72      534.59]
 [     75.079      539.31]
 [     85.145      539.48]
 [     61.552      534.24]
 [     51.455      534.31]
 [     67.302      460.79]
 [     52.184      440.36]
 [     29.479      417.05]
 [     34.767      452.95]
 [     37.644      479.05]
 [     109.99      486.71]
 [     119.97      463.76]
 [     137.97      432.65]
 [     108.33      448.09]
 [      91.64      461.85]
 [      43.12      513.41]
 [     51.311      526.12]
 [     85.189      529.14]
 [     96.841      522.84]
 [     52.985         492]
 [     55.981      492.87]
 [     52.242       491.2]
 [     91.535       499.3]
 [     85.804      501.62]
 [     90.299      496.61]
 [     53.442         517]
 [     91.787      521.11]
 [       65.5       524.1]
 [     76.632      524.32]
 [     37.533      525.34]
 [     92.649      535.28]]"
172,3.44,,0.0,0
174,3.48,,0.0,0
176,3.52,,0.0,0
178,3.56,,0.0,0
180,3.6,,0.598806619644165,"[[     98.602      439.68]
 [      69.31      334.83]
 [     108.86      443.69]
 [     28.927      387.74]
 [     1.5744      397.07]
 [     55.857      368.67]
 [     5.7993      367.45]
 [     40.312      398.24]
 [     79.097      303.53]
 [     47.668      352.57]
 [     45.748      316.55]
 [     82.729      341.19]
 [     41.092      421.74]
 [     65.998      385.41]
 [     39.008      428.91]
 [     81.133      389.52]
 [     87.911      434.63]
 [      90.77      427.05]
 [     124.94       424.7]
 [     152.72      402.53]
 [     98.874       458.5]
 [     91.052      484.13]
 [     43.242      223.69]
 [    -28.247      241.95]
 [    -101.78      282.56]
 [    -14.916      319.05]
 [     57.976      329.85]
 [     101.09      311.23]
 [     105.29      236.28]
 [     100.72       123.5]
 [     173.62       212.5]
 [     213.58      306.01]
 [     2.0773      493.76]
 [     55.094      461.18]
 [     120.59      391.86]
 [     134.83      334.69]
 [     12.235      381.76]
 [     28.505      376.56]
 [     13.718      379.41]
 [      67.25      324.18]
 [     59.918      341.01]
 [     59.619       328.1]
 [       31.1      457.27]
 [      109.2      364.91]
 [     57.663         422]
 [      76.42      396.32]
 [     46.077      497.84]
 [     155.24      366.04]]"
182,3.64,,0.0,0
184,3.68,,0.0,0
186,3.72,,0.0,0
188,3.76,,0.0,0
190,3.8,,0.0,0
192,3.84,,0.0,0
194,3.88,,0.0,0
196,3.92,,0.0,0
198,3.96,,2.8942387871211395e-05,"[[     843.81      150.76]
 [     901.78      203.73]
 [     856.22      105.31]
 [     954.95      180.53]
 [     862.81      68.206]
 [     1006.8      159.37]
 [     861.18      20.561]
 [     1060.3      153.09]
 [     822.31      68.274]
 [     1037.6      220.27]
 [     800.98      107.96]
 [     987.62      279.38]
 [     768.31      153.17]
 [     928.64      314.23]
 [      782.3      179.15]
 [     806.57      176.34]
 [     737.98      214.63]
 [     794.69      250.62]
 [     713.17      200.47]
 [     836.41       270.9]
 [     732.76      197.29]
 [     824.47      246.69]
 [     717.34      217.87]
 [     808.35         275]
 [     756.51      222.95]
 [     733.64       234.4]
 [     715.61      225.85]
 [     749.01      250.98]
 [     737.14      214.97]
 [     772.52      240.14]
 [     702.44      239.34]
 [     797.18      305.64]
 [     717.59      252.97]
 [     700.58      241.01]
 [     739.11      266.74]
 [     706.78      271.54]
 [     683.72      245.15]
 [     754.91       294.4]
 [     698.07      284.91]
 [     663.07      247.81]
 [     784.32      337.72]
 [     687.35      303.08]
 [     684.19      314.67]
 [     660.15      287.24]
 [     728.57      332.87]
 [     692.43      300.31]]"
200,4.0,,5.789395345345838e-06,"[[     855.38      151.52]
 [      918.1      200.58]
 [     867.95      106.52]
 [     972.37      178.18]
 [     873.05      67.384]
 [     1022.2       159.9]
 [     874.65      13.396]
 [     1078.4      151.99]
 [     836.82      62.979]
 [     1056.8      216.09]
 [      810.5      105.87]
 [     1003.9      275.29]
 [     773.01      157.03]
 [     935.61      315.04]
 [     800.48      170.56]
 [     823.75         170]
 [     753.66      200.93]
 [     814.66      244.66]
 [     731.47      186.71]
 [     850.19      262.13]
 [     747.33       184.6]
 [     839.22      239.83]
 [     736.04      202.59]
 [     826.02      266.11]
 [     770.76      211.15]
 [     749.91      224.11]
 [     731.51      215.17]
 [     763.92      239.53]
 [     751.36      203.77]
 [     785.38      225.72]
 [     719.97      217.33]
 [     815.78      293.73]
 [     735.41      240.25]
 [     717.28      229.16]
 [     753.36      253.51]
 [     722.44       257.6]
 [     699.97      235.81]
 [     767.77      278.82]
 [     713.25      272.35]
 [     682.15      245.55]
 [     785.95      325.45]
 [     695.97      302.98]
 [     692.06      316.21]
 [      682.9      267.34]
 [      743.5      312.86]
 [     700.98      295.84]]"
202,4.04,,8.625193004263565e-07,"[[     850.02      144.26]
 [     929.86      195.75]
 [     865.94      105.82]
 [     981.44      176.97]
 [     868.25      70.134]
 [     1030.9       155.8]
 [     866.57      24.142]
 [     1094.3      157.14]
 [     827.76      75.917]
 [     1062.4      218.63]
 [     799.75      112.27]
 [     1009.3      273.51]
 [     763.28      160.48]
 [     946.18      306.52]
 [      796.3      162.84]
