frame_count,time_sec,id,conf,landmarks
0,0.0,,0.0,0
2,0.04,,0.0,0
10,0.2,,0.0,0
12,0.24,,0.0,0
14,0.28,,0.0,0
16,0.32,,0.0,0
18,0.36,,0.0,0
20,0.4,,0.0,0
22,0.44,,0.0,0
24,0.48,,0.0,0
26,0.52,,0.0,0
28,0.56,,0.0,0
30,0.6,,0.0,0
32,0.64,,0.0,0
34,0.68,,0.0,0
36,0.72,,0.0,0
46,0.92,,1.3879534728564874e-13,"[[     957.06      363.14]
 [     1022.2      390.66]
 [     934.67      367.33]
 [     1050.9      375.06]
 [     915.26      377.96]
 [     1082.8         358]
 [     893.15      395.47]
 [     1125.7      349.61]
 [     879.89       371.2]
 [     1107.5      390.68]
 [     897.06      362.45]
 [     1082.5      435.82]
 [     927.24      360.07]
 [     1043.8      465.77]
 [     947.52      347.64]
 [     969.38      358.72]
 [     917.37      385.13]
 [     981.21      399.72]
 [      895.1      380.85]
 [     998.55      404.24]
 [     907.78      373.15]
 [     992.48      394.63]
 [     903.97      389.08]
 [     988.89      409.24]
 [     951.46      373.01]
 [     943.81      395.64]
 [     926.03      395.17]
 [     960.37      403.32]
 [     934.83       372.6]
 [     968.19      380.29]
 [     893.99      406.94]
 [        986      429.56]
 [     936.74       415.6]
 [     921.13      412.02]
 [     958.58      417.99]
 [     935.45      432.16]
 [      905.1      420.72]
 [      976.7      432.32]
 [     931.72      446.57]
 [     882.25       426.1]
 [     992.75       457.4]
 [     931.56      447.06]
 [     931.11      450.73]
 [     899.63       457.9]
 [     964.53      468.89]
 [     932.98      448.37]]"
48,0.96,,2.028539384808358e-14,"[[     956.89      347.86]
 [     1031.7      387.97]
 [     925.39      367.11]
 [     1063.3      374.73]
 [     906.95      400.99]
 [     1091.4      356.95]
 [     877.48      440.28]
 [     1131.2      356.36]
 [     865.51       382.7]
 [     1110.5      400.32]
 [     886.59      348.13]
 [     1085.7      441.95]
 [     956.41      333.89]
 [       1049      470.13]
 [     948.56      348.33]
 [     973.02      352.73]
 [     922.07      383.19]
 [     987.51      392.58]
 [     902.23      376.74]
 [     1006.1      395.81]
 [     914.02      371.09]
 [     999.48      386.11]
 [      910.5       386.1]
 [     996.74      400.84]
 [     953.88      368.28]
 [     948.16      387.61]
 [     931.94      387.67]
 [     963.99      394.37]
 [     937.55       369.6]
 [     970.47      374.01]
 [     904.52      401.86]
 [     995.38      422.39]
 [     941.33      408.48]
 [     926.34      405.85]
 [     962.88      409.84]
 [     940.91      424.84]
 [     911.21      417.14]
 [      981.2      423.78]
 [     938.43      437.46]
 [     888.66      426.92]
 [     999.02      451.14]
 [     938.16       437.6]
 [     938.56      443.45]
 [     909.66      452.56]
 [     972.25      461.87]
 [     938.63      439.73]]"
50,1.0,,8.363746815120976e-07,"[[     985.89      326.25]
 [     1030.3      373.54]
 [     983.13      297.42]
 [     1059.2      355.07]
 [     974.12      285.21]
 [     1090.9      336.37]
 [     950.27      275.29]
 [     1132.4      327.71]
 [     922.72      284.42]
 [     1109.9      376.85]
 [     907.93      309.16]
 [     1088.1      418.08]
 [     903.92      339.33]
 [     1050.9      448.46]
 [     959.33      346.11]
 [     978.51      351.15]
 [     928.94       373.2]
 [     981.24      395.72]
 [     908.82      365.43]
 [     1002.5      402.45]
 [     922.02      361.77]
 [     995.13      389.97]
 [     916.16      375.51]
 [     989.33      408.41]
 [     963.17       383.5]
 [     946.09      400.52]
 [     932.52      398.57]
 [     961.03       409.6]
 [     945.87       379.9]
 [     978.08      393.78]
 [     904.17      395.87]
 [     983.35      426.42]
 [     938.14      417.18]
 [     925.07      412.49]
 [     955.75       425.5]
 [     934.98      433.76]
 [     910.98      417.12]
 [     972.04      444.77]
 [     934.08      439.38]
 [     893.68      423.39]
 [     989.99      465.28]
 [     931.82      442.18]
 [     931.78      445.51]
 [     904.24      446.62]
 [     958.23      471.43]
 [     932.24      442.27]]"
52,1.04,,0.0,0
54,1.08,,2.5162021302094217e-06,"[[     994.25      304.86]
 [     1064.6      344.96]
 [     982.92      278.63]
 [     1089.8      321.84]
 [     960.34      266.03]
 [     1120.3      306.29]
 [     929.75      265.26]
 [     1159.9      300.78]
 [     916.25      284.14]
 [     1143.1      342.58]
 [      913.5      312.73]
 [     1122.2      378.37]
 [      921.4      337.74]
 [     1090.3      408.35]
 [     988.31      318.34]
 [     1010.6      321.14]
 [     964.02      348.25]
 [     1024.2      359.32]
 [     944.08      345.02]
 [     1040.9      363.06]
 [     955.61       337.4]
 [     1034.3      353.85]
 [      951.4      352.25]
 [       1032      368.86]
 [     997.78       344.4]
 [     992.32      364.23]
 [     974.11      364.74]
 [     1007.2      371.51]
 [     979.61      344.55]
 [     1014.6      352.06]
 [     943.72      367.58]
 [     1029.1      388.33]
 [     985.46      384.06]
 [     970.74      381.35]
 [     1004.3      386.85]
 [     983.45      401.64]
 [      954.9       389.4]
 [     1021.8      402.13]
 [     981.96      412.73]
 [     935.03      401.59]
 [     1044.9      424.51]
 [     982.04      416.76]
 [     982.69      420.83]
 [      950.5      428.84]
 [     1017.2      438.84]
 [     982.19      417.16]]"
56,1.12,,3.022216921166887e-09,"[[     994.29      286.41]
 [     1071.6      322.24]
 [     969.63      269.63]
 [     1096.3      294.43]
 [     939.58      267.83]
 [     1125.5      274.72]
 [     910.27       281.7]
 [     1168.3      269.52]
 [     907.88      288.12]
 [     1156.6      311.42]
 [     918.39      308.61]
 [     1135.2      350.77]
 [     939.11      325.34]
 [     1104.2      377.34]
 [     985.64      299.82]
 [     1011.3      299.38]
 [     964.04      331.32]
 [     1026.9      344.39]
 [     943.48      329.22]
 [       1047      345.28]
 [      954.2      321.19]
 [     1038.6      335.21]
 [     950.61      336.67]
 [       1037       352.5]
 [     997.95      331.07]
 [      992.8      350.32]
 [     974.38      352.44]
 [     1008.3      357.83]
 [      981.8      331.38]
 [     1013.2      336.09]
 [     944.04      360.57]
 [     1034.7      371.43]
 [     986.47      372.64]
 [     970.12      368.46]
 [     1007.7      373.09]
 [     986.99      389.06]
 [      955.2      382.87]
 [     1031.5      388.97]
 [     985.26      401.78]
 [     933.28      392.84]
 [     1051.1      413.57]
 [     985.88      405.51]
 [     986.39      412.59]
 [     956.01      419.24]
 [     1023.5      428.27]
 [     985.89      405.72]]"
58,1.16,,2.72967232151089e-10,"[[     975.88      282.35]
 [       1078       310.4]
 [     949.27      269.25]
 [     1103.8      282.21]
 [     917.24      272.83]
 [     1132.6      264.13]
 [     892.04       285.1]
 [     1176.3      257.99]
 [     904.54      293.37]
 [       1162      300.89]
 [     913.02      313.41]
 [     1139.4      341.11]
 [      932.5      324.34]
 [     1107.4      368.31]
 [     982.06      280.35]
 [     1017.5      288.27]
 [     961.21      318.99]
 [     1036.5      331.27]
 [     938.01      318.07]
 [     1058.7       333.8]
 [     949.56      309.57]
 [     1049.1      323.51]
 [     947.21      324.83]
 [     1048.2      340.65]
 [       1000      303.44]
 [     997.17      329.61]
 [     978.84      330.39]
 [     1014.7      335.47]
 [     982.09      305.63]
 [     1017.2      309.07]
 [     939.44      354.19]
 [     1046.6      362.67]
 [     992.33      351.16]
 [     975.03      348.32]
 [     1017.2      349.97]
 [      994.1      367.24]
 [     952.38       365.3]
 [     1043.1      368.08]
 [     992.03      383.98]
 [     923.82      377.77]
 [     1061.6      393.32]
 [     991.76      388.71]
 [     991.49      396.03]
 [     953.92      409.88]
 [     1033.1      415.17]
 [     993.92      391.06]]"
60,1.2,,0.0,0
62,1.24,,0.0,0
64,1.28,,0.0,0
66,1.32,,0.0,0
68,1.36,,0.0,0
70,1.4,,0.0,0
72,1.44,,0.0,0
74,1.48,,0.0,0
76,1.52,,0.0,0
78,1.56,,0.0,0
80,1.6,,0.0,0
82,1.64,,0.0,0
84,1.68,,0.0,0
86,1.72,,0.0,0
88,1.76,,0.000465821212856099,"[[      508.8     0.27818]
 [      639.9      1.9219]
 [     484.98     -10.621]
 [     662.69      6.6998]
 [     471.82      -19.04]
 [     691.91      11.083]
 [     445.97     -22.491]
 [     713.13      29.308]
 [     439.27     0.51534]
 [     685.37      47.206]
 [     445.84      5.9521]
 [     664.94      56.842]
 [     461.94      13.821]
 [     649.18       64.89]
 [     494.64      8.4306]
 [     524.66      6.2029]
 [     464.08      42.796]
 [     535.27      64.151]
 [      441.4      41.564]
 [     569.55       68.84]
 [     453.24       32.13]
 [     555.41      53.599]
 [     449.66      51.015]
 [     550.87      78.775]
 [     486.39      39.527]
 [     475.32      55.438]
 [     459.63      53.591]
 [     489.59      65.052]
 [     469.89      37.715]
 [     502.06      49.627]
 [      442.7      73.824]
 [     546.67      102.04]
 [     467.24      70.765]
 [     450.75      64.706]
 [     485.24      77.832]
 [     461.87      89.025]
 [     436.18      65.716]
 [     501.23      92.481]
 [     456.93      105.37]
 [      411.2      79.093]
 [     544.66      137.96]
 [     452.95      112.22]
 [     453.06      117.91]
 [     416.47      116.33]
 [     498.04      146.54]
 [     456.77      107.33]]"
90,1.8,,0.0005155916442163289,"[[     466.84     -4.8232]
 [     629.39      3.6182]
 [      457.4     -26.761]
 [     651.88      2.7861]
 [     443.91     -39.879]
 [     678.62      8.6546]
 [     416.77     -51.017]
 [     700.31      17.697]
 [     407.19     -23.096]
 [     681.46      34.894]
 [     412.01     -10.098]
 [     667.07      46.462]
 [     413.57      10.923]
 [     649.12      63.033]
 [     469.15      6.4324]
 [      517.5      6.6935]
 [     441.06      38.315]
 [      528.4      65.304]
 [     422.07      34.576]
 [     564.47      66.917]
 [     434.82      28.018]
 [     549.97      52.486]
 [     428.39      44.889]
 [      546.1      78.077]
 [     480.34      39.081]
 [     465.01      54.887]
 [     446.02      51.598]
 [     482.17      65.793]
 [     462.82      35.001]
 [     497.96      50.534]
 [     424.09      64.571]
 [     543.19      102.64]
 [     453.72      74.523]
 [      435.6      68.416]
 [     476.88      82.261]
 [     447.41      93.849]
 [     421.52      70.725]
 [     500.81      100.49]
 [     442.24      111.35]
 [     398.57      84.653]
 [     544.97      145.62]
 [     438.97      119.32]
 [      438.8      126.73]
 [     403.33      127.62]
 [     493.28      163.04]
 [     441.08       113.4]]"
92,1.84,,0.0,0
94,1.88,,0.0,0
96,1.92,,0.0,0
98,1.96,,0.0,0
100,2.0,,0.0,0
102,2.04,,0.0,0
104,2.08,,0.0,0
106,2.12,,0.0,0
108,2.16,,0.0,0
110,2.2,,0.0,0
112,2.24,,0.0,0
114,2.28,,0.0,0
116,2.32,,0.0,0
118,2.36,,0.0,0
120,2.4,,0.0,0
122,2.44,,0.945444643497467,"[[     465.76      397.62]
 [     552.25       440.4]
 [     462.65      354.41]
 [      578.9      395.15]
 [     447.35      308.09]
 [     609.52      353.87]
 [     415.55      268.57]
 [     660.76      326.45]
 [     393.58      326.84]
 [     665.61      391.16]
 [     388.71      386.42]
 [     651.09      458.17]
 [     390.03      447.87]
 [     618.77      517.94]
 [     440.65      444.74]
 [     496.09      459.24]
 [     407.81      491.43]
 [     506.55      524.53]
 [      384.3      483.58]
 [     539.71      530.12]
 [     400.58      477.17]
 [     525.51      515.95]
 [     392.78      495.95]
 [     521.79      538.75]
 [     451.49      507.54]
 [     427.44      527.12]
 [     406.67         525]
 [     448.99      539.94]
 [      430.8      502.81]
 [     473.13      520.78]
 [     388.72      512.51]
 [     518.39      564.55]
 [     413.23      550.56]
 [     396.34      544.27]
 [     442.02      558.55]
 [     411.56      570.95]
 [     379.22      552.78]
 [     475.87      586.06]
 [      407.6      587.05]
 [     360.87      567.05]
 [        514      618.47]
 [     405.23      596.21]
 [     405.21      603.33]
 [     368.32      606.86]
 [     464.07      639.35]
 [     408.89       592.6]]"
124,2.48,,0.9971057772636414,"[[     478.21      385.75]
 [     558.37      415.04]
 [     471.65      338.78]
 [     588.25      373.86]
 [     457.74      291.02]
 [     615.65      332.32]
 [     423.62      252.14]
 [      664.6      306.81]
 [     399.04      309.39]
 [     674.22      369.53]
 [     393.58      369.45]
 [     661.92      436.69]
 [     399.57      434.56]
 [      627.2      496.73]
 [     449.07      436.71]
 [     504.43      439.58]
 [     420.32      474.06]
 [     518.13      504.23]
 [     395.86       466.5]
 [     553.35       510.5]
 [     411.14      461.21]
 [     537.89      496.13]
 [     403.99      478.85]
 [     534.34       517.7]
 [     463.68      486.21]
 [      444.5      502.67]
 [      423.6      500.91]
 [     466.11      515.44]
 [     445.05      481.45]
 [     485.76      497.99]
 [     396.02      500.82]
 [      528.4      543.19]
 [     430.27      524.84]
 [     411.74      518.48]
 [        460      533.85]
 [     427.12      546.18]
 [     390.46      529.68]
 [     493.95      566.77]
 [     422.51      563.38]
 [     370.59      549.59]
 [     535.36      607.11]
 [      418.8      570.37]
 [      419.2      576.81]
 [     378.82      591.72]
 [     482.71      626.43]
 [     422.37      567.69]]"
126,2.52,,0.9975812435150146,"[[     494.23      371.73]
 [     572.51      403.51]
 [     483.11      327.57]
 [      601.3      363.38]
 [     470.47      281.62]
 [     630.44      322.24]
 [     434.59       242.9]
 [      677.4      294.69]
 [     410.15      299.58]
 [     691.06      360.22]
 [     406.78      357.29]
 [     677.07      425.79]
 [     410.63      424.06]
 [     644.47      484.92]
 [     467.19      427.45]
 [     516.94      426.31]
 [     431.87      465.52]
 [     534.73      492.88]
 [     405.84      458.14]
 [     573.57      498.03]
 [     421.32      448.99]
 [     557.13      478.86]
 [      414.8      470.42]
 [     553.45      511.74]
 [     476.54      476.58]
 [     463.97      495.77]
 [     444.04      493.87]
 [     483.39      506.22]
 [     457.34      474.63]
 [     497.57      487.17]
 [     407.01      487.85]
 [     550.81      536.77]
 [     455.65      514.12]
 [     433.17         508]
 [     482.41      521.51]
 [     449.02      538.93]
 [     409.91      521.45]
 [     504.85      553.04]
 [     444.36      557.75]
 [     388.25      541.56]
 [     557.56      600.06]
 [     441.73      563.69]
 [      442.4      573.14]
 [     393.33      586.68]
 [     502.57      619.32]
 [     444.92      560.12]]"
128,2.56,,0.9229835271835327,"[[     503.53       371.4]
 [     589.87      399.74]
 [     492.47      326.14]
 [     612.47      360.34]
 [     482.51      280.68]
 [     642.79       319.1]
 [     455.27      241.99]
 [     692.28      291.15]
 [      426.2      295.18]
 [     702.94       353.7]
 [     416.57      360.03]
 [     692.98      420.27]
 [     422.55      429.22]
 [     663.11      481.49]
 [     485.23      421.16]
 [     534.24      420.33]
 [     449.64      462.96]
 [      548.1      494.41]
 [      424.5      457.51]
 [      588.8      499.98]
 [     439.81      448.59]
 [     572.31      479.69]
 [     434.81      469.64]
 [      567.4      514.29]
 [     491.44      476.66]
 [     475.42      495.51]
 [     456.48       495.1]
 [     494.17      506.31]
 [     472.99      473.55]
 [     512.04      487.82]
 [     425.45      489.53]
 [     563.11      541.13]
 [     464.51      517.42]
 [     445.46      510.72]
 [     492.26       523.6]
 [     459.14      542.34]
 [     418.35      525.37]
 [      518.8      556.75]
 [     455.84      557.61]
 [      403.8      540.22]
 [     572.52      601.46]
 [     452.13      565.89]
 [     452.92      574.97]
 [     408.75      580.09]
 [     513.99      613.43]
 [     456.47      561.26]]"
130,2.6,,0.9946795105934143,"[[     516.02       371.9]
 [     605.03      402.85]
 [     504.96      326.29]
 [     629.63      363.53]
 [     493.03      281.28]
 [      658.5      320.28]
 [     465.54      243.97]
 [     704.75      290.76]
 [     437.83      297.85]
 [     718.62      355.78]
 [     433.58      359.43]
 [     707.45      421.57]
 [     437.45       425.6]
 [     678.91      480.29]
 [     498.84      423.94]
 [     552.99      425.55]
 [     466.92      466.31]
 [     573.28      493.33]
 [     439.82      460.84]
 [     611.76      499.82]
 [     456.67      451.86]
 [     595.16      480.21]
 [     450.46      473.18]
 [     592.46      512.74]
 [     513.18      475.92]
 [     503.43      494.66]
 [     482.63      492.91]
 [     522.91       504.8]
 [      492.5      473.86]
 [     533.99      486.35]
 [     440.65      493.65]
 [     589.43      539.96]
 [     495.78      514.14]
 [     471.74      508.64]
 [     522.92      521.82]
 [     488.79       540.4]
 [     443.83      521.31]
 [      544.8      552.93]
 [     484.29      559.53]
 [     422.76      538.65]
 [     595.37      600.27]
 [     480.91      565.29]
 [     482.04      574.79]
 [      430.6       586.9]
 [     540.07      620.97]
 [     483.51       562.2]]"
134,2.68,,0.9953218102455139,"[[     557.69      369.18]
 [     642.84      398.06]
 [     547.14      321.99]
 [     670.36      359.15]
 [     534.81      279.74]
 [     697.94      316.51]
 [     502.26      242.86]
 [     744.52      287.19]
 [        475      296.46]
 [     760.42      349.08]
 [     472.31      354.39]
 [     749.28      415.22]
 [      474.2      415.42]
 [     717.05      482.38]
 [     531.89      420.56]
 [     593.43      428.63]
 [     498.56      460.67]
 [     614.55      490.16]
 [     472.53      453.54]
 [     647.82      493.08]
 [      488.8      446.96]
 [     632.43      476.92]
 [     482.34      466.62]
 [     631.62      506.16]
 [     546.68      473.36]
 [     538.04      490.86]
 [     517.16      490.13]
 [     557.89      500.18]
 [     528.29      472.63]
 [     567.53       483.8]
 [     475.79      490.52]
 [     625.18      531.37]
 [     529.83      511.88]
 [     508.41       506.5]
 [     556.89      516.29]
 [     523.76      535.98]
 [     480.91      515.13]
 [     583.46       545.7]
 [     519.39      555.47]
 [     455.42      534.67]
 [     633.87      591.81]
 [     515.53      562.89]
 [     516.24      571.96]
 [     467.22      585.41]
 [     578.23      613.81]
 [     519.14      559.05]]"
136,2.72,,0.9932639598846436,"[[     571.58      368.17]
 [     662.42      398.93]
 [     562.79       322.5]
 [      685.5      357.98]
 [     551.21      279.91]
 [     713.69      314.45]
 [     521.81      241.01]
 [     763.41      288.96]
 [      493.8      293.46]
 [     777.72      349.81]
 [     487.69      356.12]
 [     764.86      421.07]
 [     493.51      421.04]
 [      730.9       484.1]
 [     554.24      415.05]
 [     605.38      418.44]
 [     516.73      462.81]
 [     625.92      488.28]
 [     488.63      453.95]
 [     661.86      491.33]
 [     505.43      447.04]
 [     646.61      472.96]
 [     498.85      468.75]
 [     643.96      504.86]
 [     562.74      469.19]
 [     552.46      487.84]
 [     531.52       487.4]
 [     573.09      498.54]
 [     543.72      467.04]
 [     583.85      477.87]
 [     490.08      492.38]
 [     639.41      532.68]
 [     543.61      507.54]
 [     521.25      502.57]
 [     571.43      514.32]
 [     536.87      533.11]
 [      497.5       516.6]
 [     597.16      543.15]
 [     532.22      552.75]
 [     472.82      538.93]
 [     648.92      594.47]
 [     528.57      559.09]
 [     529.58      568.14]
 [     482.51      584.86]
 [     594.68      615.85]
 [        532      557.27]]"
138,2.76,,0.9987128973007202,"[[      588.1      371.84]
 [     676.14       400.9]
 [     575.26         326]
 [      700.1       360.2]
