frame_count,time_sec,id,conf,landmarks
0,0.0,,0.0,0
2,0.04,,0.0,0
4,0.08,,0.0,0
6,0.12,,0.0,0
8,0.16,,0.0,0
10,0.2,,0.0,0
12,0.24,,0.0,0
14,0.28,,0.0,0
16,0.32,,0.0,0
18,0.36,,0.0,0
20,0.4,,0.0,0
22,0.44,,0.0,0
24,0.48,,0.0,0
26,0.52,,0.0,0
28,0.56,,0.0,0
30,0.6,,0.0,0
32,0.64,,0.0,0
34,0.68,,0.0,0
36,0.72,,0.0,0
38,0.76,,0.0,0
40,0.8,,0.0,0
42,0.84,,0.0,0
44,0.88,,0.0,0
46,0.92,,0.0,0
48,0.96,,0.0,0
50,1.0,,0.0,0
54,1.08,,0.0,0
56,1.12,,0.0,0
58,1.16,,0.0,0
60,1.2,,0.0,0
62,1.24,,0.0,0
64,1.28,,0.0,0
66,1.32,,0.0015138851013034582,"[[     656.46       147.1]
 [     699.84      172.31]
 [     627.61      101.34]
 [     730.45      132.21]
 [     614.43       55.63]
 [     760.05      92.492]
 [     610.81      5.9321]
 [     805.06      65.859]
 [     574.12      59.329]
 [     823.04      140.06]
 [     571.46      115.38]
 [     809.87      218.83]
 [     566.22      181.98]
 [     775.17      287.66]
 [     605.09      236.31]
 [     632.48      238.19]
 [     570.05      277.08]
 [     640.14      304.62]
 [     543.21      273.26]
 [     682.53      313.02]
 [     557.47       266.9]
 [     664.17      294.22]
 [     554.24      285.72]
 [      659.3      324.87]
 [     602.86      308.01]
 [     588.15       328.7]
 [     572.84      327.27]
 [      602.3      334.28]
 [     586.07      306.07]
 [     619.09      313.93]
 [     545.62      308.41]
 [     647.06      354.49]
 [     581.38      346.45]
 [        564       343.5]
 [     601.41      352.52]
 [     579.23      365.51]
 [     541.21      356.97]
 [     627.04      381.14]
 [     576.77      376.99]
 [     526.74      363.86]
 [     662.74       407.1]
 [     572.02      392.08]
 [      572.3      402.25]
 [     546.64      383.62]
 [     617.96      409.21]
 [     573.49       392.5]]"
68,1.36,,0.0005972707876935601,"[[     574.71      372.14]
 [     652.72      291.74]
 [     573.72      380.56]
 [     558.09      251.12]
 [     543.05      234.34]
 [     577.73      253.47]
 [        565      227.86]
 [     556.48      256.53]
 [     675.87      286.05]
 [     634.27      283.86]
 [     661.57      268.66]
 [     650.86      303.06]
 [     572.27      332.91]
 [     598.55      338.08]
 [      564.6      337.04]
 [     606.17      345.98]
 [     575.79         364]
 [     578.33      369.76]
 [     593.78      378.71]
 [      618.5      390.16]
 [     558.33      370.63]
 [     541.71      370.82]
 [     654.08      153.53]
 [     621.64       86.11]
 [     583.84      22.923]
 [     571.02      103.75]
 [     563.53      189.33]
 [     764.13      234.15]
 [     789.27       167.3]
 [     789.07      81.112]
 [     724.89      128.09]
 [     686.03         171]
 [     514.79      323.08]
 [     542.89       346.8]
 [     618.89      368.46]
 [     657.86         352]
 [     554.18      240.38]
 [     567.15      246.74]
 [     561.15         235]
 [     662.23      275.83]
 [     648.53      279.57]
 [     659.99      281.14]
 [     542.95       333.1]
 [     629.03      349.14]
 [     568.94      347.09]
 [     588.65      352.23]
 [     525.51      352.02]
 [     646.61      376.34]]"
70,1.4,,0.9883506298065186,"[[     633.33      129.53]
 [     688.65      162.88]
 [     610.42      86.849]
 [     720.31      122.27]
 [     598.88      44.143]
 [     745.13      78.908]
 [     583.57     -3.0592]
 [     786.41      46.267]
 [     556.22      53.304]
 [     808.53       113.7]
 [     548.49         115]
 [     796.58      189.27]
 [     540.28      172.52]
 [     765.98      254.56]
 [     564.26      223.22]
 [     605.33      224.28]
 [     523.84      258.58]
 [     627.26       295.4]
 [     504.54      250.98]
 [     664.59       298.7]
 [     517.39      245.64]
 [     647.63       283.1]
 [     510.83      264.52]
 [     645.17      309.59]
 [     569.82      275.77]
 [     554.06      294.42]
 [     531.14      292.38]
 [     576.06      306.34]
 [      548.6      273.96]
 [      590.1      286.79]
 [     506.92      285.34]
 [     635.97      336.79]
 [     541.39      317.49]
 [     518.73      311.57]
 [     570.38      328.31]
 [      535.9      343.79]
 [      500.4      327.96]
 [      595.9       356.2]
 [     531.78      358.88]
 [      484.8      333.29]
 [        657       395.1]
 [     527.78      370.54]
 [     527.77      380.86]
 [     494.39       373.8]
 [     592.91      405.55]
 [     529.53      365.46]]"
72,1.44,,0.9971332550048828,"[[     629.15       128.6]
 [     685.36      162.75]
 [     603.05      84.309]
 [     716.46      121.66]
 [        590      42.407]
 [     741.75      79.062]
 [     570.52     -3.2859]
 [     782.27      43.038]
 [     542.48      56.158]
 [     807.16      114.09]
 [     539.91         113]
 [        797      189.91]
 [     535.74      172.58]
 [     766.36      251.81]
 [     564.19      222.41]
 [      611.4      230.48]
 [     522.13      261.37]
 [     626.77      295.78]
 [     502.07      254.46]
 [     662.34      296.77]
 [     513.67      248.44]
 [     645.36      282.49]
 [     509.18      267.71]
 [     644.71      309.12]
 [     569.92      278.98]
 [     552.83      296.64]
 [     528.91      294.57]
 [      575.3      308.85]
 [        549       277.3]
 [     589.98      289.64]
 [     506.32      291.98]
 [      639.9      336.97]
 [     539.46      319.63]
 [     515.93      313.28]
 [     571.29      329.78]
 [     534.68      347.48]
 [     497.43      330.82]
 [     598.36      358.99]
 [     530.51      363.17]
 [     481.16      339.54]
 [     657.68      400.36]
 [     527.07      374.58]
 [        527       385.2]
 [     493.48      381.44]
 [     592.12      411.79]
 [     529.18      369.73]]"
74,1.48,,0.9894059300422668,"[[     631.15      134.11]
 [     692.22      172.14]
 [     604.18      89.404]
 [     721.79      131.61]
 [     589.72      44.635]
 [     749.01      90.404]
 [     573.19      -1.324]
 [     788.23      56.023]
 [     547.44      57.709]
 [     809.16       130.2]
 [     546.29      116.94]
 [     799.04      204.45]
 [     541.79      179.72]
 [     770.02      265.09]
 [     569.88      232.86]
 [     618.44      239.48]
 [      532.1      270.69]
 [     630.17      301.95]
 [     513.04      265.14]
 [     666.76      308.11]
 [     523.18      258.66]
 [     648.89       292.3]
 [     520.56      276.66]
 [     646.58      317.58]
 [     578.11      288.04]
 [     559.56      310.17]
 [     535.88      306.83]
 [     580.77      320.75]
 [     554.68      283.69]
 [     599.85      298.07]
 [     517.74      299.18]
 [     639.98      344.18]
 [      548.3       334.5]
 [     524.84      330.69]
 [     577.25      345.01]
 [     544.61      359.34]
 [     504.94      347.83]
 [     601.62      375.68]
 [     539.34      376.38]
 [     490.74      351.78]
 [     656.26      413.15]
 [      536.6      383.47]
 [     536.79      394.13]
 [     502.01       391.4]
 [     598.37      422.18]
 [      537.5       381.1]]"
76,1.52,,0.9911342859268188,"[[        619      137.57]
 [     682.29      177.92]
 [     593.22      95.171]
 [     716.03      139.27]
 [     581.78      54.064]
 [     743.88      101.38]
 [     565.93      8.0144]
 [     784.96      71.095]
 [     540.12      66.304]
 [      805.3       142.1]
 [     536.53      124.01]
 [      797.6      214.27]
 [     543.08      186.45]
 [     768.24      267.25]
 [     575.51      239.57]
 [     622.39      249.68]
 [     537.38      285.47]
 [     634.94      315.04]
 [     513.56      274.24]
 [     670.28      316.67]
 [     525.77      267.79]
 [     653.41      304.34]
 [     521.34      290.38]
 [     653.26      327.35]
 [     586.37      304.84]
 [     565.72       330.6]
 [     542.79      327.31]
 [     584.51      339.12]
 [     562.69      300.78]
 [     607.42      314.47]
 [     521.92      318.26]
 [     645.18      356.28]
 [     555.87      354.12]
 [     533.62      350.55]
 [     582.54      361.54]
 [     553.13      377.22]
 [     516.18      364.16]
 [     612.44      388.82]
 [     549.29      394.25]
 [     505.18      363.69]
 [     674.38      415.53]
 [     547.65      402.53]
 [     548.48      411.81]
 [     516.67      405.15]
 [     611.94      431.39]
 [     548.72      400.69]]"
78,1.56,,0.9562039375305176,"[[      609.1      148.78]
 [     678.61      187.96]
 [     580.29      109.63]
 [     709.02      148.69]
 [     563.34      66.662]
 [     734.46      110.29]
 [     541.34      23.353]
 [     771.01       80.92]
 [     522.09      81.937]
 [     796.64         150]
 [     526.04      140.69]
 [     790.22      224.67]
 [     532.29      199.02]
 [     763.77      279.69]
 [     571.03      265.11]
 [     625.72       267.1]
 [     542.19      307.05]
 [        640      329.31]
 [     514.98      292.16]
 [     675.81      334.19]
 [     532.15      288.83]
 [     660.28      319.75]
 [     523.54      309.32]
 [     658.52      344.52]
 [     587.43      319.36]
 [     565.96      349.78]
 [     544.52      349.06]
 [     587.32         359]
 [     563.89      318.44]
 [     609.62      330.82]
 [     525.51      336.31]
 [     652.69      372.15]
 [     557.03      377.66]
 [     535.65      372.74]
 [     585.35      382.31]
 [     555.57      401.88]
 [     521.02      384.45]
 [     616.77      401.25]
 [     554.31      416.01]
 [      509.3       380.9]
 [     668.88      428.14]
 [     552.41      423.26]
 [     554.31      431.63]
 [     521.96      428.75]
 [     616.21      450.18]
 [     552.96      421.27]]"
82,1.64,,0.0,0
84,1.68,,0.0,0
86,1.72,,0.6005522608757019,"[[     577.45      275.84]
 [     662.13      309.42]
 [     548.86      234.17]
 [     690.28      270.36]
 [     525.76      187.83]
 [     721.68      240.31]
 [     499.22      150.06]
 [        758      224.37]
 [     485.58      211.66]
 [      777.1      282.87]
 [     500.01      264.41]
 [     767.66      349.82]
 [     509.98      319.48]
 [     739.15      410.93]
 [     567.06      386.13]
 [     616.07      379.08]
 [     542.71      426.34]
 [     625.86      444.81]
 [     516.39      417.97]
 [     655.64      450.36]
 [     532.37       410.5]
 [      642.6      440.47]
 [     525.66      430.17]
 [     639.78       458.9]
 [     576.22      450.33]
 [     555.22      492.61]
 [      533.2      493.82]
 [     579.62       502.1]
 [     550.61      447.76]
 [     598.73      458.88]
 [     518.14      455.39]
 [     630.97      490.44]
 [     550.99      520.71]
 [     527.78      518.68]
 [     578.69      526.64]
 [     551.11      545.07]
 [     509.64       522.8]
 [     608.49      534.39]
 [     549.99      557.84]
 [     491.66      523.93]
 [     642.64      552.33]
 [     548.61      564.16]
 [     548.86      569.53]
 [     511.25      565.52]
 [     600.51      580.53]
 [     548.96      560.83]]"
88,1.76,,0.9794631004333496,"[[      579.6      296.33]
 [     667.63      329.93]
 [     549.83      252.07]
 [     693.66      291.97]
 [     526.11      207.14]
 [     725.44      256.11]
 [     508.67      162.02]
 [     761.79      224.59]
 [     491.59      220.45]
 [     777.14      295.97]
 [     497.49      284.05]
 [     771.44      366.65]
 [     502.95      346.38]
 [     740.98      427.94]
 [     554.47      404.47]
 [      603.8      412.57]
 [     518.04      456.72]
 [     625.91      481.91]
 [     491.44      443.67]
 [     664.22      485.07]
 [     509.69      441.56]
 [     646.91      467.88]
 [     500.65      460.12]
 [     645.61      497.39]
 [     563.18       475.9]
 [     550.57      499.84]
 [     525.95      500.29]
 [     572.31      509.19]
 [     539.46      473.69]
 [     586.86      484.55]
 [     500.34      486.99]
 [     637.48      527.39]
 [     541.77      529.15]
 [      515.7      524.32]
 [     572.66      534.35]
 [      539.3      555.99]
 [     497.68      539.56]
 [     605.55      562.85]
 [     537.42      571.89]
 [     477.15      549.14]
 [     658.16      582.79]
 [     534.87      578.01]
 [      537.7       583.8]
 [     494.89      591.31]
 [     604.82      614.66]
 [     535.27      575.37]]"
90,1.8,,0.9967913031578064,"[[     589.01      299.96]
 [     672.41      338.15]
 [     565.91      257.23]
 [     702.48      298.08]
 [     550.59      208.23]
 [     733.27      260.19]
 [     526.07      163.13]
 [     773.79      231.63]
 [     498.87      220.86]
 [     793.19      305.05]
 [     498.19      287.37]
 [     777.11      379.28]
 [     505.41      351.01]
 [     745.72      433.73]
 [     556.08      410.06]
 [     606.54      417.53]
 [     516.38      457.22]
 [     627.66      488.55]
 [     492.96      443.59]
 [     666.57      490.81]
 [     506.31      441.78]
 [     646.59      473.79]
 [     499.31      460.86]
 [     647.03      504.16]
 [     568.37      476.87]
 [      550.1      500.33]
 [     525.48      499.01]
 [     573.57      512.23]
 [     544.04      474.22]
 [     591.01      489.35]
 [     500.59      487.27]
 [     638.55      534.22]
 [     539.62      529.34]
 [     513.82      522.66]
 [     570.94      536.43]
 [     534.61      554.88]
 [     496.86      538.18]
 [     600.09      567.67]
 [     532.28      573.19]
 [      477.7      549.36]
 [     661.51      596.31]
 [     529.11      582.93]
 [     531.22      590.39]
 [     490.36      592.77]
 [     599.69      625.12]
 [     529.98         579]]"
92,1.84,,0.9985796213150024,"[[     586.75      301.72]
 [     670.33      339.64]
 [     563.46      256.64]
 [     700.87       297.9]
 [     548.05      207.92]
 [     730.86      259.16]
 [     526.86      161.68]
 [     770.39      228.06]
 [      496.8      222.75]
 [     789.59      298.25]
 [     494.48      289.47]
 [     775.64      368.28]
 [     499.11       355.2]
 [     747.07      427.19]
 [     548.11      410.23]
 [     605.05      416.68]
 [     510.77      454.97]
 [     626.05       486.2]
 [     487.42      444.31]
 [     661.65      487.77]
 [     499.86      440.29]
 [     643.95      471.45]
 [     495.78      459.86]
 [     643.91      499.91]
 [     563.24      473.09]
 [     547.58      496.19]
 [     522.03      495.17]
 [     571.26      507.22]
 [     539.74      471.62]
 [     586.57      484.73]
 [     496.45      485.76]
 [     636.87      530.73]
 [     537.57      525.51]
 [        510      519.21]
 [     570.45      531.73]
 [     532.57      552.67]
 [     492.51       537.5]
 [     598.86      566.36]
 [     530.58      570.23]
 [     473.17      549.19]
 [     661.57      590.89]
 [     526.92      579.02]
 [     529.02      585.98]
 [     487.86      593.26]
 [     599.11      623.16]
 [     527.83      575.25]]"
94,1.88,,0.9976818561553955,"[[      586.4      299.65]
 [     662.87       339.5]
 [     567.03      253.78]
 [     697.96      294.68]
 [      552.2      205.91]
 [     728.78      251.71]
 [     529.69      157.53]
 [     769.56       225.7]
 [     498.27      216.24]
 [     787.21      293.25]
 [     493.79      284.18]
 [     773.06      366.17]
 [     498.53       352.5]
 [     739.96      429.91]
 [     552.14      402.33]
 [     603.57       406.3]
 [     508.96      446.27]
 [     615.26      480.85]
 [     485.76      439.23]
 [     658.83      481.94]
 [      498.6      434.74]
 [     638.28      465.47]
 [     493.92      452.36]
 [     637.14      498.92]
 [     562.77      467.33]
 [     545.39      491.17]
 [     516.71      489.56]
 [     568.29       503.1]
 [     536.17      463.12]
 [     587.19      478.96]
 [     495.07       477.9]
 [     629.25      531.57]
 [     535.08      518.97]
 [     506.64      512.51]
 [     564.62      526.77]
 [     529.67      545.43]
 [      489.1      532.33]
 [     594.74      562.34]
 [     526.53       563.6]
 [      471.2       540.2]
 [     650.03      587.34]
 [     523.91      570.54]
 [     525.11      577.71]
 [     484.78       582.6]
 [     589.23      618.27]
 [     523.46      566.69]]"
96,1.92,,0.9984696507453918,"[[     582.23      297.85]
 [     660.01      334.57]
 [     562.94      250.57]
 [     694.15      292.96]
 [     549.91      203.89]
 [     721.98       250.5]
 [     526.25      154.81]
 [     765.06       222.2]
 [     495.77      213.94]
 [     783.52      294.57]
 [     489.43      279.74]
 [     768.13      369.02]
 [     492.88      348.76]
 [     730.85         435]
 [     545.18      389.73]
 [     593.11      396.79]
 [      500.8      435.64]
 [     609.45      470.54]
 [     475.82      430.73]
 [     647.68      474.82]
 [     488.52      423.94]
 [     630.24      457.91]
 [     485.21      443.53]
 [     629.21      486.11]
 [     552.58      456.99]
 [     534.18      480.35]
 [     507.42      476.96]
 [     557.63      492.41]
 [     526.69      454.34]
 [     575.45      470.19]
 [     484.56      470.21]
 [     617.55      515.95]
 [     523.85       507.9]
 [     495.53      500.03]
 [     554.05       516.1]
 [     516.82      533.71]
 [     480.22       516.7]
 [     580.78      553.05]
 [     513.27      553.22]
 [     459.78      527.99]
 [     642.55      580.84]
 [     510.23      561.34]
 [     511.01      569.38]
 [     471.92      570.61]
 [     574.86      608.92]
 [     510.68         557]]"
98,1.96,,0.9949142932891846,"[[     576.82      300.27]
 [     651.01      339.23]
 [     556.41      251.13]
 [     683.28         294]
 [     544.05      203.72]
 [     712.45      249.21]
 [     522.29      157.24]
 [     755.23         218]
 [     493.51      211.69]
 [     775.91      289.53]
 [     487.14      276.99]
 [     761.56       365.4]
 [     483.41      343.81]
 [     729.36      430.39]
 [     537.71      389.86]
 [     580.79      393.91]
 [     491.57      434.62]
 [     598.22      469.49]
 [     469.74      429.15]
 [     639.39      473.44]
 [     479.56      422.99]
 [     622.57      455.02]
 [     477.16      441.01]
 [     619.95      488.13]
 [     542.51      453.33]
 [     525.31      474.01]
 [     498.77      471.86]
 [     548.06      485.53]
 [     517.29      449.82]
 [     567.29      465.55]
 [     477.72      466.81]
 [      609.5      518.02]
 [      515.6      502.54]
 [     486.48      494.66]
 [     546.39       509.9]
 [     508.27      531.48]
 [     469.87      516.13]
 [     574.05      547.88]
 [     504.73      548.96]
 [     451.26      528.71]
 [     629.91      579.32]
 [     502.25      556.39]
 [     503.17      566.55]
 [     464.48      568.74]
 [     565.75      603.98]
 [     501.86      554.38]]"
100,2.0,,0.9983933568000793,"[[     571.07      302.63]
 [     646.88      341.69]
 [     551.33      254.18]
 [     678.55      297.61]
 [      540.5      204.37]
 [     706.48      253.59]
 [     522.55      155.85]
 [     755.05      224.72]
 [     493.07      211.42]
 [     773.56      296.17]
 [     482.94      276.86]
 [     756.13      373.58]
 [     478.74      343.88]
 [     723.99      434.31]
 [     517.74      396.51]
 [     567.65      395.35]
 [     476.68      436.14]
 [     589.09      473.94]
 [      458.2      429.05]
 [     634.36      477.53]
 [     468.41      422.99]
 [     615.68      459.58]
 [     465.41       442.8]
 [     612.78      492.55]
 [     532.14      455.05]
 [     514.92      475.24]
 [     488.77      474.07]
 [     539.23      487.74]
 [     509.29      452.51]
 [     556.15      465.48]
 [     462.45      468.73]
 [     604.02      520.85]
 [     501.86      503.47]
 [     474.46      496.73]
 [     535.92      513.03]
 [     495.73      534.44]
 [     459.34       521.9]
 [     565.38      551.69]
 [     492.35      551.09]
 [     442.86      528.49]
 [     630.43      583.78]
 [     490.23      560.48]
 [     491.43      569.82]
 [     453.34      572.08]
 [      561.2      607.64]
 [      490.8      557.26]]"
102,2.04,,0.9985930323600769,"[[     573.07       311.9]
 [     649.58      345.48]
 [     553.89      261.13]
 [     682.31       305.5]
 [     542.91      212.59]
 [      712.1      261.92]
 [     525.93      164.64]
 [     759.01      236.14]
 [      494.7      218.87]
 [     773.78      305.21]
