frame_count,time_sec,id,conf,landmarks
0,0.0,,0.0,0
2,0.04,,0.0,0
4,0.08,,0.0,0
6,0.12,,0.0,0
8,0.16,,0.0,0
10,0.2,,0.0,0
12,0.24,,0.0,0
14,0.28,,0.0,0
16,0.32,,0.0,0
18,0.36,,0.0,0
20,0.4,,0.0,0
22,0.44,,0.0,0
24,0.48,,0.0,0
28,0.56,,0.0,0
30,0.6,,0.0,0
36,0.72,,4.038342922285665e-06,"[[     224.85      316.96]
 [     307.15      337.05]
 [     206.04      339.33]
 [     319.57      378.46]
 [      188.4       375.8]
 [     333.09      419.76]
 [     166.94      411.14]
 [     353.75      464.49]
 [     165.03      378.53]
 [      377.8      420.49]
 [     175.26      338.26]
 [     363.16      370.51]
 [     209.99      310.21]
 [     321.84      332.53]
 [     192.85       361.6]
 [     209.82      344.29]
 [     174.17      383.56]
 [     217.82      390.63]
 [     157.09      380.24]
 [        238      389.45]
 [     167.93      374.49]
 [     228.52      381.41]
 [     163.89      386.92]
 [     227.93      397.97]
 [     171.84      403.88]
 [     152.93      426.16]
 [     136.88      428.36]
 [     170.06      432.89]
 [     157.98      403.31]
 [     186.99      409.37]
 [     160.04      397.72]
 [     224.69      421.04]
 [     148.72      444.67]
 [     131.03      443.45]
 [     167.61      448.43]
 [     146.38      464.55]
 [     125.17      452.94]
 [     193.58      459.53]
 [     146.45      475.74]
 [     122.44      459.29]
 [     232.89      486.41]
 [     145.43      483.37]
 [     146.16      487.46]
 [      128.6      488.87]
 [     186.38      502.53]
 [     147.15      480.76]]"
38,0.76,,6.040213975211373e-06,"[[     222.23      317.11]
 [     311.56      332.17]
 [     205.47      336.99]
 [        325      373.22]
 [     188.35      374.94]
 [     339.65      414.26]
 [     170.85      406.88]
 [     359.69      461.36]
 [     169.98      375.96]
 [     384.47      414.01]
 [     175.67      338.22]
 [     366.79      366.15]
 [     207.76      314.63]
 [      324.7      327.13]
 [     199.37      349.14]
 [     216.13      340.35]
 [     177.33      376.31]
 [     225.03      382.32]
 [     161.24      374.75]
 [     246.76      382.53]
 [     171.04      368.21]
 [      236.2      373.06]
 [     168.37      381.97]
 [     236.59      390.47]
 [     177.88      398.21]
 [      161.9      420.81]
 [     149.25      422.71]
 [     177.18      426.35]
 [     162.99       398.4]
 [     193.73       403.9]
 [     166.07      393.57]
 [     234.54       410.7]
 [     158.24      436.44]
 [     145.85      434.52]
 [     175.81      437.15]
 [     157.07      452.88]
 [     134.18       442.3]
 [     196.01      454.57]
 [     157.27       463.9]
 [     129.23      452.78]
 [     237.66      479.35]
 [     155.75      475.06]
 [     157.35      479.78]
 [     135.42      478.67]
 [     198.29      490.34]
 [     156.45      470.74]]"
40,0.8,,8.296766282001045e-06,"[[     230.58      314.64]
 [     307.99      331.05]
 [     211.03      334.79]
 [     320.28      372.74]
 [     194.08      367.87]
 [     333.29      414.33]
 [     174.76      400.47]
 [     356.16      462.03]
 [      170.9      366.16]
 [     382.53      417.38]
 [     180.52      328.75]
 [     365.06      362.96]
 [     219.42      303.57]
 [     320.81      324.78]
 [     193.97      355.64]
 [     210.86      341.45]
 [     175.32      379.47]
 [     220.45      386.46]
 [     161.46      375.47]
 [     244.07      383.49]
 [      171.1      370.36]
 [     232.29      375.85]
 [     166.62      382.69]
 [     233.22      391.27]
 [     177.95      397.43]
 [     157.05      419.71]
 [     141.14      422.33]
 [     174.43       426.3]
 [      163.9      397.47]
 [     192.34      403.17]
 [      164.9      392.83]
 [     227.63      413.69]
 [     152.74      438.64]
 [     136.45      437.64]
 [      171.5      442.05]
 [     151.79      458.41]
 [      131.7      446.58]
 [     196.11      453.05]
 [     152.01      469.51]
 [     127.39      450.46]
 [      234.6      477.46]
 [     151.18      476.13]
 [     151.83      480.18]
 [     135.22      480.44]
 [     190.05      493.94]
 [     152.44      474.61]]"
42,0.84,,0.0,0
44,0.88,,0.0,0
46,0.92,,0.0,0
48,0.96,,1.4183394341671374e-05,"[[     232.92      304.65]
 [     309.91       322.3]
 [     218.44      324.15]
 [     320.72      361.98]
 [     203.99      353.36]
 [     333.98      403.37]
 [     187.64      377.01]
 [     359.64      451.58]
 [     185.38      349.07]
 [     381.27      404.45]
 [     190.82      315.97]
 [     367.41      350.67]
 [     222.77      297.31]
 [     322.47      313.88]
 [     204.26      349.27]
 [     225.13      335.35]
 [     188.57      372.39]
 [     232.88      376.38]
 [     175.18      368.29]
 [     254.96      374.41]
 [     184.12      364.17]
 [     244.06       368.2]
 [      180.2      375.15]
 [     244.23      381.11]
 [     192.49      385.56]
 [     166.95      411.48]
 [     154.86       412.7]
 [      183.5       414.6]
 [     179.01      385.76]
 [     206.92      390.56]
 [     177.58      384.21]
 [     242.15       401.3]
 [     164.04      428.17]
 [     150.54      427.54]
 [     182.38      430.11]
 [     164.59      445.35]
 [     147.79      438.15]
 [     208.12      444.56]
 [     165.03      456.51]
 [     144.35      444.24]
 [     242.74      462.97]
 [     164.76      472.75]
 [     165.58      479.36]
 [     151.12      469.37]
 [     201.55       481.1]
 [     166.28      468.68]]"
50,1.0,,2.5011078832903877e-05,"[[     234.07      302.44]
 [     329.48      320.61]
 [     217.11      324.78]
 [     342.09      358.41]
 [     206.05      355.57]
 [     356.27      398.63]
 [     189.44      381.57]
 [      376.4       446.1]
 [     189.84      352.56]
 [     392.95      399.76]
 [     193.46       321.6]
 [     379.35      352.12]
 [     221.24      299.06]
 [     340.81      314.17]
 [     214.48      342.53]
 [      229.5      326.89]
 [     195.66      368.63]
 [     239.48      372.54]
 [     180.31      365.05]
 [     261.69      369.32]
 [     190.42      360.19]
 [     250.45      362.89]
 [     185.98      373.73]
 [     251.86      378.78]
 [     196.61       385.4]
 [     174.74      411.34]
 [     160.21      413.71]
 [     191.48      416.75]
 [     182.63      386.26]
 [     210.12      390.69]
 [     188.28      381.69]
 [     247.46      400.43]
 [     171.97      429.57]
 [     156.75      428.64]
 [     188.68      431.93]
 [     171.45      446.89]
 [     152.64      435.99]
 [     213.58       443.3]
 [     172.02      459.06]
 [     148.25      442.69]
 [     250.02      465.06]
 [     171.13      466.59]
 [     171.76      470.54]
 [     157.99      472.31]
 [     207.67      481.82]
 [     172.01      464.97]]"
52,1.04,,3.5098182706860825e-05,"[[     242.98      300.55]
 [     335.83      315.09]
 [     223.56      324.21]
 [     351.45      353.95]
 [     211.07      358.16]
 [     367.03      394.53]
 [     196.34      386.89]
 [     386.82      441.13]
 [     192.26      353.81]
 [     399.88      392.04]
 [     198.08      316.56]
 [     384.86      346.97]
 [     232.13      292.55]
 [     347.38      311.05]
 [     220.34      338.93]
 [     237.92      324.18]
 [      201.6      367.03]
 [     246.88      368.66]
 [     185.91       365.6]
 [        269      368.11]
 [     195.89       360.2]
 [     258.58      360.48]
 [     192.36      373.06]
 [     258.79      376.28]
 [     201.03      386.66]
 [     181.95      413.31]
 [     167.07      415.97]
 [     198.01      417.58]
 [      186.9      387.82]
 [     215.14      392.02]
 [     194.93      382.27]
 [     257.03      397.67]
 [     179.79      430.65]
 [     164.38      430.66]
 [     196.18      432.65]
 [     179.29      448.49]
 [     159.99      438.05]
 [     218.45      442.16]
 [     180.08      459.92]
 [     155.28      447.32]
 [     258.99      467.08]
 [     179.68      467.36]
 [     180.58      471.53]
 [     165.04      475.02]
 [     216.97      483.21]
 [     180.66      465.41]]"
54,1.08,,0.0,0
56,1.12,,0.0,0
58,1.16,,2.030264658969827e-05,"[[     272.62      294.02]
 [     361.32      304.76]
 [     246.82       319.5]
 [     379.33      352.21]
 [     230.78      356.36]
 [     394.12      396.72]
 [     210.72      391.49]
 [     409.57      448.29]
 [     210.07      351.63]
 [      432.2      397.06]
 [     224.02      309.35]
 [     419.16      342.62]
 [     259.18      283.44]
 [     375.47      300.03]
 [      241.3      332.13]
 [     260.63      320.57]
 [      221.7      365.05]
 [     271.02      367.13]
 [      205.7      362.48]
 [     293.93      368.12]
 [     217.26       355.9]
 [     282.17      356.82]
 [      211.5      371.13]
 [     282.76      376.37]
 [     222.31      385.98]
 [     204.63      412.86]
 [     189.17      415.19]
 [     221.54      418.73]
 [     205.51      386.56]
 [     239.21      391.67]
 [     216.86       380.5]
 [     281.01      399.38]
 [     201.89       430.1]
 [     185.08      428.76]
 [     220.59      432.24]
 [     201.29      450.83]
 [     178.16      438.82]
 [     245.35      444.52]
 [     201.99       462.4]
 [        171      443.77]
 [     285.74       466.1]
 [     201.89      472.69]
 [     202.55      477.35]
 [     181.56      473.83]
 [     241.65      486.99]
 [     203.11      469.12]]"
62,1.24,,0.0,0
64,1.28,,0.0,0
66,1.32,,0.0,0
68,1.36,,6.450744695030153e-05,"[[     286.75      296.98]
 [     380.93      304.92]
 [      270.9      321.91]
 [     396.84      349.61]
 [     259.73      355.06]
 [     413.79      393.52]
 [     244.91      387.49]
 [     430.02      448.46]
 [     239.87      355.34]
 [     456.67      395.45]
 [     245.79      316.12]
 [     443.22      337.19]
 [     274.19      290.56]
 [     395.67      300.76]
 [     269.95      344.42]
 [     284.62      333.78]
 [     256.53      371.37]
 [     300.98      374.57]
 [     239.39      370.51]
 [     322.41      373.43]
 [     249.29       364.4]
 [     311.29      366.59]
 [     247.08      376.74]
 [     312.49      381.53]
 [     258.87      394.01]
 [     241.61      423.13]
 [     226.73      426.08]
 [     257.85      426.77]
 [     243.05      396.01]
 [     273.19       398.5]
 [     248.09      389.71]
 [     310.34      401.94]
 [     240.95      440.65]
 [     225.34      441.21]
 [     257.09      441.13]
 [     241.17      457.09]
 [     218.64      447.17]
 [     280.67      449.27]
 [     242.73      469.04]
 [     215.65      454.23]
 [     317.78      468.22]
 [     242.13      475.89]
 [     243.33      479.65]
 [     226.05      483.21]
 [     279.35      489.91]
 [     242.97      474.98]]"
70,1.4,,0.0007092718733474612,"[[     288.71      297.37]
 [     388.51      313.57]
 [     274.28      320.86]
 [     396.13      350.72]
 [     263.97      352.69]
 [     410.79      392.44]
 [     247.55      385.49]
 [     428.29      436.19]
 [     243.31      352.39]
 [     445.28       389.3]
 [     249.31      314.27]
 [     432.87      341.18]
 [     276.56      289.35]
 [     397.16      306.69]
 [     273.32      346.19]
 [     291.24         338]
 [     257.82      373.23]
 [     304.94       376.8]
 [     242.72      372.59]
 [     327.95      375.42]
 [        252       367.2]
 [     316.04      368.78]
 [     249.59      378.82]
 [     316.99      382.13]
 [      263.7      398.38]
 [     244.15      423.91]
 [     230.84      426.23]
 [     260.61      428.53]
 [     248.82      399.27]
 [     276.98      403.18]
 [     251.61      389.22]
 [     313.13      400.68]
 [     242.36      440.23]
 [     228.75      440.27]
 [     258.63       442.3]
 [      242.7      456.17]
 [     222.46      447.16]
 [     282.74      451.64]
 [      243.8      466.82]
 [     219.45      451.48]
 [     317.14      470.56]
 [     243.38      473.78]
 [     244.31      478.04]
 [     227.29      478.85]
 [     279.21      488.69]
 [     244.08       471.8]]"
72,1.44,,0.00018470370559953153,"[[     296.09      293.94]
 [     394.91      296.72]
 [     276.85      318.13]
 [     412.43      342.52]
 [     266.01      352.57]
 [     427.27      391.74]
 [     248.38      385.85]
 [     441.28      453.08]
 [     246.83      352.13]
 [     466.53      396.22]
 [     252.42      313.34]
 [     454.94      333.21]
 [     280.89      287.05]
 [     409.72      292.71]
 [     280.43      341.89]
 [     297.28      330.41]
 [     263.65      372.21]
 [     310.73      374.72]
 [     245.21       370.1]
 [     333.03      372.96]
 [     256.92      364.38]
 [      321.8      366.41]
 [     253.31      378.01]
 [     323.06      381.16]
 [     271.19       396.2]
 [     252.03       425.1]
 [     237.96      427.77]
 [     269.13       430.1]
 [      254.5      398.37]
 [      286.1      401.83]
 [     258.71      390.01]
 [     320.86      402.78]
 [     249.97       443.1]
 [     235.57      442.57]
 [     267.17      444.01]
 [     250.77      459.78]
 [     227.37      448.12]
 [     290.74      452.35]
 [     252.49      471.35]
 [     223.01      454.53]
 [     326.96      474.81]
 [     251.19      477.23]
 [     252.49      479.88]
 [     234.88      481.63]
 [     288.63      490.57]
 [     252.05      476.39]]"
74,1.48,,0.0002253619604744017,"[[     298.14      295.38]
 [     403.22      294.58]
 [     280.49      320.42]
 [     419.61      345.62]
 [     271.43      357.13]
 [     432.28      396.76]
 [     252.55      386.87]
 [      438.8      456.85]
 [     252.96      355.67]
 [     467.44      399.97]
 [     254.84      318.67]
 [     459.43      333.27]
 [     279.23      294.32]
 [     418.12      291.81]
 [     284.27       343.8]
 [     301.76      331.91]
 [     268.27      372.86]
 [     315.13         376]
 [     250.97      369.51]
 [     337.35      374.66]
 [     261.85      365.23]
 [     326.18       366.8]
 [     258.22      377.55]
 [     327.71      381.85]
 [     277.52      398.48]
 [     257.68      428.14]
 [     242.69      430.77]
 [      275.4      432.19]
 [     260.18      401.01]
 [     293.26      404.43]
 [     259.46      388.88]
 [     324.55       404.7]
 [      256.5      446.08]
 [     241.19      445.83]
 [     274.02      446.23]
 [      257.2      462.55]
 [     232.48      450.13]
 [      297.9       454.3]
 [     259.08      473.14]
 [     227.97      456.01]
 [     334.43      477.19]
 [     257.61       480.7]
 [     259.58         484]
 [     240.86      485.27]
 [     296.55      493.87]
 [     258.61       478.7]]"
78,1.56,,0.0005696301232092083,"[[     305.47      296.08]
 [     404.83      307.23]
 [     291.62      321.53]
 [     415.77      347.59]
 [     282.14      353.04]
 [     429.73      392.02]
 [     266.46      387.56]
 [     444.72       439.1]
 [     260.92      351.96]
 [     461.66      393.79]
 [      265.7      313.82]
 [     450.78      342.09]
 [     294.23      288.43]
 [     416.94      306.66]
 [     292.33      349.09]
 [     308.78      340.12]
 [     277.32      374.78]
 [     322.51       377.9]
 [     260.63      371.53]
 [     343.97      377.06]
 [     271.41         368]
 [     333.05      370.61]
 [     267.82      378.53]
 [     333.88      382.78]
 [     281.65      399.81]
 [     263.18      426.08]
 [     249.49      428.09]
 [     278.69      430.98]
 [     266.02       400.2]
 [     295.47      404.48]
 [     268.58      390.49]
 [     330.55      402.43]
 [     260.65      442.66]
 [      247.2      441.92]
 [     276.48      444.44]
 [     260.84      457.97]
 [     241.05      447.68]
 [     301.81      452.35]
 [     261.62      468.63]
 [     238.64      454.84]
 [      332.5       473.8]
 [     260.52      475.69]
 [     261.98      478.99]
 [      246.4      480.54]
 [     296.53      489.34]
 [     261.16       473.7]]"
80,1.6,,0.0,0
82,1.64,,0.0,0
88,1.76,,0.0005787921836599708,"[[     327.72      292.47]
 [     423.97      303.68]
 [     311.01      320.14]
 [     439.62      344.06]
 [      299.7      355.88]
 [     452.65      390.43]
 [     287.26      390.21]
 [     461.53      445.67]
 [     281.17      355.65]
 [     489.55      394.91]
 [     285.73      312.71]
 [     477.73      333.83]
 [     313.56      283.78]
 [      435.2      298.23]
 [     313.47      346.69]
 [     330.36      336.18]
 [     296.86      373.39]
 [     344.09      376.75]
 [     280.96      373.17]
 [     364.46      374.59]
 [     289.94      368.44]
 [     354.03      369.06]
 [     288.03      378.66]
 [     354.94      381.62]
 [     302.96      400.16]
 [     285.41      427.27]
 [     271.17      429.77]
 [      301.2      431.51]
 [     287.55      401.97]
 [     317.44      405.65]
 [     290.28      391.16]
 [     352.46      403.36]
 [     283.79       444.6]
 [      269.7      444.42]
 [     299.77      445.76]
 [     284.26      461.34]
 [     262.58      448.92]
 [     323.38       453.9]
 [     285.75      470.34]
 [     259.58      455.03]
 [     357.34      475.02]
 [     284.34      476.73]
 [     286.21      479.31]
 [     270.66      482.62]
 [     319.46      488.91]
 [     285.52      474.83]]"
92,1.84,,0.0012410235358402133,"[[     326.36      293.52]
 [     419.93      306.41]
 [     312.63      317.31]
 [     432.07      342.67]
 [     302.09      351.54]
 [     447.47      384.81]
 [     286.75      381.61]
 [     465.27      432.76]
 [     284.82       349.4]
 [     480.95      384.34]
 [     290.84      312.83]
 [     466.77      333.95]
 [     312.29      292.72]
 [     432.05      301.25]
 [     313.07      348.08]
 [     331.56      341.44]
 [      296.8      376.81]
 [     345.76      379.01]
 [     281.35      374.49]
 [     367.11      376.61]
 [     290.83      370.36]
 [     356.16      371.69]
 [     288.01      381.65]
 [     357.32      382.93]
 [     305.46      403.76]
 [     285.95       433.5]
 [     273.45      435.38]
 [     300.64      436.74]
 [     290.01      405.17]
 [     318.83      407.38]
 [     291.75       392.7]
 [     354.28      403.32]
 [     285.05      450.69]
 [     271.06      449.95]
 [     300.35      450.69]
 [     286.79      463.72]
 [     266.86      452.45]
 [     326.22      454.04]
 [     288.36      472.81]
 [     265.19      460.21]
 [     356.88      471.65]
 [     287.51      477.98]
 [     289.74      480.66]
 [     274.69       484.4]
 [      321.6      489.12]
 [      287.7      478.05]]"
94,1.88,,0.0013607407454401255,"[[     329.21      293.71]
 [     419.95      305.65]
 [     317.13       318.5]
 [     432.55      347.42]
 [     306.44      352.51]
 [     447.35      392.48]
 [      291.1      381.85]
 [     462.16      444.51]
 [     287.62      351.38]
 [     480.57      392.71]
 [     294.22      313.13]
 [     467.99      334.91]
 [     316.47      292.23]
 [     430.43      301.75]
 [     314.58       350.2]
 [     334.06      341.75]
 [     299.35      378.43]
 [     345.92      379.97]
 [     285.19      375.72]
 [     367.95      377.02]
 [     294.17      372.66]
 [     356.41      372.19]
 [     290.62      382.82]
 [     357.48      383.78]
 [     307.96      404.57]
 [      286.6       431.5]
 [     275.05      433.75]
 [     301.72      435.51]
 [     293.14       406.1]
 [     320.89      408.15]
 [      294.8      392.72]
 [     354.42      403.36]
 [     284.96      448.94]
 [     271.71      447.98]
 [     300.38      449.79]
 [     286.57      463.25]
 [     268.37      453.18]
 [     326.29      455.44]
 [      288.3      472.89]
 [     266.04      459.21]
 [     360.25       473.8]
 [      287.8       478.4]
 [     290.07      481.47]
 [     274.06      483.56]
 [     323.87      489.07]
 [     288.38      477.55]]"
100,2.0,,0.0013216056395322084,"[[      327.8      297.73]
 [     423.06      309.28]
 [     316.17       325.9]
 [      434.8      349.57]
 [     309.85      357.88]
 [     450.58      395.87]
 [     295.73      398.86]
 [     468.03      444.27]
 [     287.73      361.85]
 [     486.51      393.85]
 [     290.94      322.89]
 [        471      335.31]
 [      316.7      292.75]
 [     433.03      301.52]
 [     316.08      353.38]
