frame_count,time_sec,id,conf,landmarks
0,0.0,,0.0,0
2,0.04,,0.0,0
4,0.08,,0.0,0
6,0.12,,0.0,0
8,0.16,,0.0,0
10,0.2,,0.0,0
12,0.24,,0.0,0
14,0.28,,0.0,0
16,0.32,,0.0,0
18,0.36,,0.0,0
20,0.4,,0.0,0
22,0.44,,0.0,0
24,0.48,,0.0,0
26,0.52,,0.0,0
28,0.56,,0.0,0
30,0.6,,0.0,0
32,0.64,,0.0,0
34,0.68,,0.0,0
36,0.72,,0.0,0
38,0.76,,0.0,0
40,0.8,,0.0,0
42,0.84,,0.0,0
46,0.92,,0.8826035261154175,"[[     1218.3      163.78]
 [     1326.4      140.58]
 [     1190.9      206.98]
 [     1357.1      162.54]
 [     1173.5      240.99]
 [       1374      189.26]
 [     1155.6      290.56]
 [     1406.6      233.38]
 [     1135.9       233.8]
 [     1403.1       185.6]
 [     1124.2      184.01]
 [     1389.2      146.04]
 [     1190.3       159.2]
 [     1351.9      147.19]
 [     1302.4      216.46]
 [     1328.9      205.17]
 [     1293.5      256.79]
 [     1358.6      238.88]
 [     1259.7       259.2]
 [     1381.3       233.1]
 [     1277.3      248.99]
 [     1368.4      227.49]
 [       1278      267.69]
 [     1372.6       243.9]
 [     1360.9      290.46]
 [     1381.3       332.7]
 [     1358.6      337.04]
 [     1399.5      335.19]
 [     1338.3      298.97]
 [     1382.4      292.25]
 [     1283.7      293.51]
 [     1379.3      269.94]
 [     1382.5      355.46]
 [     1358.8      357.09]
 [       1402      354.64]
 [     1382.3       372.2]
 [     1332.2      354.85]
 [     1414.1      338.23]
 [     1382.8      382.99]
 [     1303.9      373.48]
 [     1424.1      346.55]
 [     1383.8      388.71]
 [     1384.6      393.51]
 [     1346.1      400.22]
 [       1411      383.04]
 [     1383.1      385.76]]"
48,0.96,,0.0,0
50,1.0,,0.0,0
52,1.04,,0.0,0
54,1.08,,0.00047328099026344717,"[[     1126.9      140.39]
 [     1288.6       101.8]
 [     1125.5       180.8]
 [     1305.2      126.62]
 [     1125.1      224.81]
 [     1328.9       170.3]
 [     1119.4      270.87]
 [     1368.5      226.07]
 [     1080.1      231.91]
 [     1351.4      165.77]
 [     1044.3      193.71]
 [     1319.8      123.05]
 [     1109.5       145.3]
 [     1293.5      92.992]
 [     1234.3      117.53]
 [     1266.7      115.21]
 [     1234.3       172.1]
 [     1298.6         147]
 [     1200.9      181.56]
 [     1317.8      139.42]
 [     1213.3      166.23]
 [     1303.3      134.92]
 [     1220.4      187.56]
 [     1311.2      150.62]
 [     1307.5      181.97]
 [     1335.7       197.1]
 [     1318.2      207.88]
 [     1354.1      195.61]
 [     1291.6      191.72]
 [     1324.8      178.81]
 [     1231.4      215.55]
 [     1319.1      170.98]
 [     1345.6      216.57]
 [       1322      226.22]
 [     1363.8      212.88]
 [     1349.5      237.28]
 [     1297.6      241.81]
 [     1370.8      207.14]
 [     1353.5      253.73]
 [     1267.9      279.71]
 [     1377.6      221.43]
 [     1354.4      262.47]
 [     1356.1       268.4]
 [     1316.7      283.79]
 [     1375.3      256.63]
 [     1355.8      259.55]]"
56,1.12,,0.00513049541041255,"[[     1126.4      119.08]
 [     1285.9      96.511]
 [       1122      155.82]
 [     1299.8      113.28]
 [     1116.5      195.27]
 [     1312.7      143.77]
 [     1103.5      246.22]
 [     1342.8      171.21]
 [     1061.5      205.99]
 [     1328.2      137.88]
 [     1040.6      164.17]
 [     1313.1      107.89]
 [     1108.9      129.26]
 [     1284.9      81.664]
 [     1236.2      98.723]
 [     1264.6      100.89]
 [     1228.2      154.43]
 [     1293.7      134.65]
 [     1196.6      164.12]
 [     1314.5      128.81]
 [     1209.2      147.85]
 [     1300.1      122.73]
 [     1215.8      168.19]
 [     1306.8      139.68]
 [     1304.1      164.03]
 [       1334      181.11]
 [     1315.1       191.4]
 [     1352.2      180.74]
 [     1288.1      173.74]
 [     1320.7      162.37]
 [     1219.9      199.46]
 [     1315.4      160.01]
 [       1344      199.22]
 [     1318.1      207.81]
 [     1360.8       197.4]
 [     1345.6      220.76]
 [     1290.6      224.67]
 [     1364.3      196.32]
 [     1348.2      237.08]
 [     1254.5      258.03]
 [     1368.5      205.22]
 [     1347.3      243.74]
 [     1348.3      251.96]
 [     1305.5      263.71]
 [     1367.1      236.05]
 [     1349.1      238.88]]"
58,1.16,,0.035384178161621094,"[[     1129.7      112.91]
 [     1292.1      92.201]
 [     1123.2      145.56]
 [     1305.5      104.37]
 [     1116.5      185.27]
 [     1313.2      125.48]
 [     1104.8       235.3]
 [     1340.2      148.26]
 [     1064.1      198.79]
 [     1322.9      120.12]
 [     1041.1       161.8]
 [     1311.9      102.04]
 [     1105.5      133.24]
 [     1287.3      78.915]
 [     1233.2      95.419]
 [     1267.2      95.496]
 [       1228      150.35]
 [     1294.6      130.63]
 [     1196.6      160.42]
 [       1317      123.67]
 [     1209.7      144.03]
 [     1301.5      116.35]
 [     1216.1      165.15]
 [       1309      135.16]
 [     1304.6       156.1]
 [     1334.3       172.6]
 [     1315.2      183.39]
 [     1352.3      170.92]
 [       1289      166.78]
 [       1320      154.15]
 [     1219.2      195.26]
 [     1319.3      154.08]
 [     1345.6       188.7]
 [     1320.1      198.85]
 [     1362.4       186.3]
 [     1348.2      212.03]
 [     1293.6      215.13]
 [     1365.2      186.29]
 [     1350.6      227.31]
 [     1255.6      248.07]
 [       1370      197.41]
 [     1349.8      234.17]
 [     1350.4       243.1]
 [     1306.7      253.14]
 [     1368.3      224.49]
 [     1351.5      227.85]]"
60,1.2,,0.013807488605380058,"[[     1137.1       99.32]
 [     1299.4      90.338]
 [     1128.5      132.03]
 [     1309.3         100]
 [     1122.8      176.17]
 [     1317.5      120.29]
 [     1106.7       224.6]
 [       1345      151.26]
 [     1069.7      189.26]
 [     1329.6      119.48]
 [     1043.4      151.63]
 [     1322.1      102.36]
 [       1109      126.16]
 [     1299.9      78.058]
 [     1239.6      85.379]
 [     1267.9      86.274]
 [     1233.6      140.49]
 [     1297.2       121.8]
 [     1198.6      152.35]
 [     1320.4      116.83]
 [     1213.3      134.38]
 [     1304.9      107.49]
 [     1219.5      157.02]
 [     1311.7      127.44]
 [     1308.9      148.62]
 [     1340.2      162.38]
 [     1321.2      174.25]
 [     1357.4      161.52]
 [     1293.1      159.31]
 [     1323.4      146.15]
 [       1224      185.31]
 [     1322.8      144.42]
 [     1351.6       179.7]
 [       1326      189.87]
 [     1367.6      177.35]
 [     1353.9      202.66]
 [     1299.9      209.36]
 [     1368.5      176.71]
 [       1356       217.6]
 [       1262      238.11]
 [     1372.9      190.43]
 [     1354.3      224.29]
 [     1354.9      232.81]
 [       1312       243.9]
 [     1371.5      215.66]
 [     1357.3      217.69]]"
62,1.24,,0.013201660476624966,"[[     1132.5      99.018]
 [     1292.7       83.47]
 [     1124.5      133.28]
 [     1303.8       93.34]
 [       1118      174.01]
 [     1312.8      110.73]
 [     1102.3      220.27]
 [     1339.1      129.94]
 [     1066.8      181.87]
 [     1323.1      107.65]
 [     1044.7      145.25]
 [     1313.6      92.169]
 [     1110.7      116.38]
 [     1288.8      69.574]
 [     1238.8      83.736]
 [     1269.8      82.235]
 [     1233.3      132.99]
 [     1297.8      116.07]
 [     1195.6      143.98]
 [     1317.6      108.44]
 [     1211.5      125.24]
 [     1303.7      102.61]
 [     1218.6      149.37]
 [     1311.2      119.43]
 [     1303.6      146.66]
 [     1333.3      162.08]
 [     1315.3      172.78]
 [     1349.6      159.84]
 [     1289.6      156.24]
 [     1318.1      143.71]
 [     1220.3      179.17]
 [     1318.8      140.35]
 [     1344.3      178.38]
 [     1320.2      188.33]
 [     1359.9      174.61]
 [     1346.7      199.46]
 [     1290.5      204.49]
 [     1365.9      174.03]
 [       1349      214.81]
 [     1256.5      236.74]
 [     1369.9      190.05]
 [     1347.7      221.98]
 [     1348.6       229.3]
 [     1305.6      239.42]
 [     1366.4       213.1]
 [     1350.2      216.78]]"
64,1.28,,0.0733068436384201,"[[     1129.3      101.16]
 [     1286.3      79.171]
 [     1118.7      132.36]
 [       1297      85.114]
 [       1116      176.17]
 [     1308.7       97.77]
 [     1105.4      224.17]
 [     1330.7      112.22]
 [     1066.4      184.17]
 [     1317.4      96.064]
 [     1040.3      144.61]
 [     1311.2      88.007]
 [     1108.6      116.88]
 [     1287.6      70.454]
 [     1233.1      78.622]
 [     1263.7       78.66]
 [     1226.5       135.3]
 [     1291.3      114.33]
 [     1191.1      144.02]
 [     1312.4      107.51]
 [     1206.1      127.34]
 [     1297.9      102.14]
 [     1210.6      149.78]
 [     1304.7      119.21]
 [     1298.3      144.59]
 [     1325.1      158.76]
 [       1308      167.99]
 [       1341         157]
 [       1284      153.25]
 [     1312.2      141.57]
 [     1214.2      176.42]
 [     1314.7      139.14]
 [     1335.8       174.9]
 [     1311.2      185.15]
 [     1352.4      172.27]
 [     1338.7      196.74]
 [     1283.3      199.12]
 [     1358.7      170.79]
 [     1341.6      213.16]
 [     1251.2      235.88]
 [     1363.7      189.93]
 [     1341.9      220.13]
 [     1342.9      227.57]
 [       1297      238.27]
 [     1360.6      214.73]
 [     1342.7      216.99]]"
66,1.32,,0.006916907615959644,"[[     1130.8      94.472]
 [     1287.4      83.161]
 [     1121.3      123.32]
 [     1303.1      95.811]
 [     1115.6      168.77]
 [     1318.6      125.63]
 [       1104      219.53]
 [     1341.5      154.85]
 [     1063.5      181.34]
 [     1327.2      123.61]
 [       1041      145.49]
 [     1314.4      94.968]
 [     1101.9      132.19]
 [     1292.9      73.446]
 [     1229.4      85.509]
 [     1260.4      84.108]
 [     1221.7       136.3]
 [     1287.7      120.51]
 [     1190.6      143.88]
 [     1310.4      114.15]
 [     1204.3      128.92]
 [     1295.3      106.57]
 [     1207.8      148.62]
 [     1301.4      125.37]
 [     1292.3      152.69]
 [     1318.2      168.52]
 [     1300.1      178.16]
 [       1335       168.4]
 [     1276.9      160.62]
 [     1307.9      150.14]
 [     1212.6      175.24]
 [     1310.8      145.14]
 [     1326.8      186.48]
 [     1303.5       194.5]
 [     1343.1      183.65]
 [     1329.1      206.75]
 [     1275.5      208.91]
 [     1347.7      180.86]
 [     1331.1      222.89]
 [     1239.8      240.97]
 [     1354.3      196.28]
 [       1331       228.6]
 [     1331.8      236.21]
 [     1289.1      245.85]
 [     1349.5      222.33]
 [     1333.1      225.67]]"
68,1.36,,0.08995241671800613,"[[     1144.3      83.152]
 [       1293      79.526]
 [     1127.8      120.88]
 [     1310.3       93.52]
 [     1120.7      159.75]
 [     1326.3      119.29]
 [     1103.8      206.67]
 [     1344.6      154.58]
 [     1068.2      163.93]
 [     1332.7      123.53]
 [     1054.3       119.8]
 [     1325.6      99.593]
 [     1117.6      89.662]
 [     1298.9      72.813]
 [     1237.2       89.76]
 [     1271.4      88.604]
 [       1225      138.25]
 [     1295.9      126.49]
 [     1191.5      143.76]
 [     1316.3      124.96]
 [     1207.4      129.29]
 [     1304.2      116.11]
 [     1210.2      149.64]
 [     1307.2      133.76]
 [     1293.5      155.01]
 [     1316.3      172.77]
 [     1298.4      181.37]
 [     1333.5      173.51]
 [     1277.9       161.5]
 [     1307.9      153.53]
 [     1211.5      174.56]
 [     1317.8      153.07]
 [     1324.7       190.9]
 [     1299.9         198]
 [     1342.2      189.51]
 [     1325.5      213.94]
 [     1271.7      209.91]
 [     1348.5      188.03]
 [     1327.3      229.76]
 [     1238.8      237.67]
 [     1350.8      201.43]
 [     1326.8      235.92]
 [     1326.9      242.17]
 [     1286.2      245.89]
 [     1346.9      226.94]
 [     1329.1      232.24]]"
70,1.4,,0.5843028426170349,"[[     1141.3      74.106]
 [       1288      60.645]
 [     1127.1      109.47]
 [     1308.7      81.427]
 [     1114.4      145.11]
 [     1320.4       114.2]
 [     1102.6      192.09]
 [       1344      147.24]
 [     1068.2      147.45]
 [     1338.6      110.48]
 [     1053.1      108.77]
 [       1323      76.225]
 [     1120.1       76.63]
 [     1290.8      47.678]
 [     1233.9      87.543]
 [       1262      79.997]
 [     1223.5      130.48]
 [     1288.1       118.7]
 [     1192.7       136.1]
 [     1307.9      110.71]
 [     1205.4      122.69]
 [     1294.9      106.08]
 [     1211.4      141.74]
 [     1301.5      121.77]
 [     1293.1      156.01]
 [     1314.1      174.22]
 [     1295.7      182.47]
 [     1331.2      174.45]
 [       1277      163.01]
 [     1308.2      154.45]
 [     1214.9      172.67]
 [     1308.8      144.22]
 [     1322.1      192.51]
 [     1298.8      200.23]
 [     1338.6      191.38]
 [     1322.4      216.21]
 [     1269.8      210.99]
 [     1346.4      191.13]
 [     1324.6      231.29]
 [     1232.5      237.67]
 [     1349.5      195.31]
 [     1323.3      234.95]
 [     1324.1      240.71]
 [     1283.4      249.18]
 [     1347.2      228.39]
 [     1324.7      233.14]]"
72,1.44,,0.7000187635421753,"[[     1137.3      69.621]
 [     1286.9      51.689]
 [     1121.7      104.12]
 [     1304.6      68.413]
 [     1114.5      140.04]
 [     1318.9      100.52]
 [     1101.5      184.34]
 [       1339      137.01]
 [     1069.4      140.25]
 [     1332.2      98.917]
 [     1050.4      100.51]
 [     1317.2      64.412]
 [     1118.3      68.476]
 [     1286.8      39.116]
 [     1228.8      80.324]
 [       1259      75.806]
 [     1219.4      123.84]
 [     1284.1      111.29]
 [       1187      129.89]
 [     1303.8      105.09]
 [     1202.2      115.62]
 [     1291.5      98.677]
 [     1206.4      136.37]
 [     1296.9      116.84]
 [     1290.3      149.16]
 [     1311.3      171.09]
 [     1291.6      177.88]
 [     1328.1       172.2]
 [     1273.5      155.72]
 [     1306.5      148.79]
 [     1210.1      165.34]
 [     1303.1      137.25]
 [     1317.2      190.12]
 [     1294.2       195.7]
 [     1333.7      188.71]
 [     1315.9      209.96]
 [     1264.3      203.81]
 [     1342.4      185.54]
 [     1316.7      223.33]
 [     1228.9      230.01]
 [     1344.6      195.27]
 [       1315      231.05]
 [     1315.7      237.11]
 [     1276.1      242.34]
 [     1338.3      224.08]
 [     1316.9      226.83]]"
74,1.48,,0.6823568940162659,"[[     1129.7      60.355]
 [     1277.8      44.706]
 [     1115.3      91.033]
 [     1295.2      61.886]
 [     1103.9      126.32]
 [     1311.7      93.363]
 [     1089.1      168.55]
 [     1335.6      130.15]
 [     1061.2      128.96]
 [       1328      91.633]
 [       1043      90.669]
 [     1311.3      55.547]
 [     1107.8      64.608]
 [     1282.3      31.082]
 [     1225.4      71.746]
 [     1256.5      69.172]
 [     1215.9      114.39]
 [     1278.6      102.75]
 [     1181.4      118.47]
 [     1298.3      97.182]
 [     1198.4      104.37]
 [       1286      90.394]
 [       1201      125.84]
 [     1290.5      107.54]
 [     1281.9      137.77]
 [     1304.2      159.86]
 [     1285.8      166.78]
 [     1321.3      161.55]
 [     1264.6      144.52]
 [     1298.4      138.08]
 [     1205.1      152.62]
 [     1297.2      128.72]
 [     1310.5      181.44]
 [     1288.1      185.32]
 [     1327.5       178.4]
 [     1309.8      200.47]
 [     1257.7      194.94]
 [     1336.8      174.66]
 [     1310.7      213.86]
 [     1222.6      216.14]
 [     1340.6      186.15]
 [     1308.9       221.8]
 [     1309.9      227.77]
 [     1268.1      230.37]
 [     1332.1      215.44]
 [     1311.7      217.09]]"
76,1.52,,0.782602071762085,"[[     1124.8      56.025]
 [     1274.1      37.851]
 [     1107.7      84.282]
 [     1290.4      58.021]
 [       1096      120.39]
 [     1305.3        88.6]
 [     1079.3      166.98]
 [     1328.1       122.3]
 [     1056.1      120.58]
 [     1320.2      85.074]
 [     1034.6      82.894]
 [     1306.6      49.441]
 [     1104.4      54.876]
 [     1274.3      24.148]
 [     1218.5      64.621]
 [     1249.7      64.357]
 [     1206.8      109.07]
 [     1271.5      95.125]
 [     1173.4      113.05]
 [     1291.6      91.246]
 [     1188.5      100.67]
 [     1279.8      84.763]
 [     1193.2      120.93]
 [     1284.1      100.91]
 [     1273.2       132.3]
 [     1295.6      154.51]
 [     1278.1      161.72]
 [     1311.3      155.48]
 [     1256.7      138.79]
 [     1288.3      131.67]
 [     1195.3      147.95]
 [     1289.8      121.67]
 [     1302.1      174.51]
 [     1281.3      178.52]
 [     1317.2      172.26]
 [     1301.1      195.65]
 [     1250.3      184.93]
 [     1327.6      169.84]
 [     1301.9      208.75]
 [     1216.4       210.1]
 [     1328.9      179.82]
 [     1299.6      216.26]
 [     1300.8      221.14]
 [     1259.5      223.23]
 [     1320.8      209.13]
 [       1302      212.13]]"
78,1.56,,0.5224250555038452,"[[     1119.3       51.97]
 [     1270.5      43.681]
 [     1103.6      83.437]
 [     1287.4      60.343]
 [     1093.6      119.32]
 [     1299.6      86.308]
 [     1075.7       165.4]
 [     1318.8      119.61]
 [     1050.7      122.61]
 [     1312.3      85.812]
 [     1028.2      82.161]
 [     1303.6      55.787]
 [     1099.4      51.964]
 [     1274.7       31.11]
 [     1211.1      62.418]
 [     1245.8      61.283]
 [     1200.7      107.23]
 [     1266.4      96.216]
 [       1166      112.59]
 [     1285.8      90.401]
 [     1181.2      98.792]
 [     1273.6      84.738]
 [     1185.9      120.93]
 [       1278      100.63]
 [     1267.8      132.26]
 [     1288.6      155.25]
 [     1271.2      162.49]
 [     1304.6      156.14]
 [     1251.7      138.63]
 [     1283.5      132.01]
 [     1187.7       147.9]
 [     1285.8      122.24]
 [     1294.3      175.33]
 [     1273.7      179.16]
 [     1309.9      172.34]
 [       1294      195.05]
 [     1243.1      186.18]
 [     1320.7      170.18]
 [     1295.5      209.18]
 [     1212.3      210.02]
 [     1324.4      179.14]
 [     1294.2      214.89]
 [     1295.2      219.42]
 [     1253.9      222.84]
 [     1316.5      208.51]
 [     1295.8      212.09]]"
80,1.6,,0.5898879170417786,"[[     1116.4      58.956]
 [     1268.4      45.502]
 [     1103.8      89.545]
 [     1286.7      65.581]
 [     1092.7      126.46]
 [     1297.4       98.17]
 [     1077.2      170.68]
 [     1318.5      129.79]
 [     1048.4      127.06]
 [     1313.1      95.065]
 [     1027.1      88.394]
 [       1302      60.009]
 [       1095      63.124]
 [     1271.5      32.002]
 [     1210.3      74.686]
 [     1242.3       69.51]
 [     1198.6      115.12]
 [     1264.3      105.95]
 [     1165.4      119.36]
 [     1283.8      101.67]
 [     1181.8      105.76]
 [     1271.7      95.013]
 [     1184.4      125.85]
 [       1276      110.99]
 [     1267.8      137.71]
 [     1288.5      160.29]
 [     1270.4      166.91]
 [     1304.9      161.59]
 [     1251.2      144.07]
 [     1283.3      138.31]
 [       1187      154.02]
 [     1282.7       130.8]
 [     1295.1      180.31]
 [       1273      183.98]
 [     1310.9      177.76]
 [     1293.9      199.47]
 [     1242.2      192.31]
 [     1320.9      174.12]
 [     1294.5      212.77]
 [     1207.7      216.42]
 [     1324.1      188.24]
 [     1292.7      220.24]
 [     1293.1      226.98]
 [     1252.8      227.34]
 [     1314.6      212.24]
 [     1295.1      215.79]]"
82,1.64,,0.8196439146995544,"[[     1122.6       71.25]
 [     1267.2      50.374]
 [       1108      102.33]
 [     1284.8      71.016]
 [     1096.2      136.03]
 [     1298.2      99.854]
 [     1082.3      178.34]
 [     1322.9      134.51]
 [     1055.9      135.43]
 [     1315.2      96.079]
 [       1036      99.348]
 [     1300.1      61.782]
 [     1103.7      65.989]
 [     1267.2      36.318]
 [     1212.5      77.503]
 [     1246.6      79.453]
 [     1204.9      119.22]
